# Real time calculation: 
# Eall: Total energy
# Eall0: Initial total energy
# 1:Time[fs] 2:Eall[eV] 3:Eall-Eall0[eV] 
      0.00000000 -0.856502261776965E+003  0.000000000000000E+000 
      0.02000000 -0.856502261796378E+003 -0.194127714307168E-007 
      0.04000000 -0.856502261795927E+003 -0.189618826826074E-007 
      0.06000000 -0.856502261790524E+003 -0.135586616233054E-007 
      0.08000000 -0.856502261763223E+003  0.137428260883887E-007 
      0.10000000 -0.856502261671499E+003  0.105466397125857E-006 
      0.12000000 -0.856502261431159E+003  0.345806147795327E-006 
      0.14000000 -0.856502260898963E+003  0.878002782182086E-006 
      0.16000000 -0.856502259855498E+003  0.192146742712987E-005 
      0.18000000 -0.856502257989680E+003  0.378728528329882E-005 
      0.20000000 -0.856502254886117E+003  0.689084814737909E-005 
      0.22000000 -0.856502250016326E+003  0.117606391054124E-004 
      0.24000000 -0.856502242734520E+003  0.190424457903865E-004 
      0.26000000 -0.856502232278928E+003  0.294980378783598E-004 
      0.28000000 -0.856502217779097E+003  0.439978688585600E-004 
      0.30000000 -0.856502198269355E+003  0.635076106624210E-004 
      0.32000000 -0.856502172708546E+003  0.890684198369361E-004 
      0.34000000 -0.856502140006090E+003  0.121770875034260E-003 
      0.36000000 -0.856502099053349E+003  0.162723616558522E-003 
      0.38000000 -0.856502048759750E+003  0.213017215521285E-003 
      0.40000000 -0.856501988092864E+003  0.273684101587427E-003 
      0.42000000 -0.856501916120647E+003  0.345656318257059E-003 
      0.44000000 -0.856501832054802E+003  0.429722163976591E-003 
      0.46000000 -0.856501735293960E+003  0.526483005039965E-003 
      0.48000000 -0.856501625464751E+003  0.636312214646879E-003 
      0.50000000 -0.856501502458917E+003  0.759318048246858E-003 
      0.52000000 -0.856501366465219E+003  0.895311746543919E-003 
      0.54000000 -0.856501217994257E+003  0.104378270848322E-002 
      0.56000000 -0.856501057894687E+003  0.120388227849431E-002 
      0.58000000 -0.856500887360045E+003  0.137441692032161E-002 
      0.60000000 -0.856500707924973E+003  0.155385199254102E-002 
      0.62000000 -0.856500521449595E+003  0.174032737005682E-002 
      0.64000000 -0.856500330092044E+003  0.193168492114991E-002 
      0.66000000 -0.856500136268923E+003  0.212550804270637E-002 
      0.68000000 -0.856499942603216E+003  0.231917374917875E-002 
      0.70000000 -0.856499751860380E+003  0.250991658558279E-002 
      0.72000000 -0.856499566873421E+003  0.269490354463502E-002 
      0.74000000 -0.856499390457416E+003  0.287131954913030E-002 
      0.76000000 -0.856499225315109E+003  0.303646185658006E-002 
      0.78000000 -0.856499073935325E+003  0.318784164007761E-002 
      0.80000000 -0.856498938485993E+003  0.332329097248112E-002 
      0.82000000 -0.856498820703786E+003  0.344107317988797E-002 
      0.84000000 -0.856498721783286E+003  0.353999367935037E-002 
      0.86000000 -0.856498642267922E+003  0.361950904397186E-002 
      0.88000000 -0.856498581945224E+003  0.367983174192729E-002 
      0.90000000 -0.856498539749571E+003  0.372202739463524E-002 
      0.92000000 -0.856498513674994E+003  0.374810197162333E-002 
      0.94000000 -0.856498500700541E+003  0.376107642450699E-002 
      0.96000000 -0.856498496731011E+003  0.376504595498129E-002 
      0.98000000 -0.856498496555317E+003  0.376522164836435E-002 
      1.00000000 -0.856498493824465E+003  0.376795250092413E-002 
      1.02000000 -0.856498481051045E+003  0.378072592007106E-002 
      1.04000000 -0.856498449631634E+003  0.381214533121582E-002 
      1.06000000 -0.856498389893071E+003  0.387188389448409E-002 
      1.08000000 -0.856498291163514E+003  0.397061345126235E-002 
      1.10000000 -0.856498141868292E+003  0.411990867350599E-002 
      1.12000000 -0.856497929650308E+003  0.433212665778549E-002 
      1.14000000 -0.856497641514436E+003  0.462026252942154E-002 
      1.16000000 -0.856497263994700E+003  0.499778226571760E-002 
      1.18000000 -0.856496783342195E+003  0.547843477018942E-002 
      1.20000000 -0.856496185731783E+003  0.607604518232064E-002 
      1.22000000 -0.856495457484726E+003  0.680429223964252E-002 
      1.24000000 -0.856494585304010E+003  0.767647295576405E-002 
      1.26000000 -0.856493556518622E+003  0.870525834346538E-002 
      1.28000000 -0.856492359332879E+003  0.990244408636780E-002 
      1.30000000 -0.856490983076794E+003  0.112787001712588E-001 
      1.32000000 -0.856489418452648E+003  0.128433243173952E-001 
      1.34000000 -0.856487657773427E+003  0.146040035385289E-001 
      1.36000000 -0.856485695188511E+003  0.165665884541396E-001 
      1.38000000 -0.856483526892313E+003  0.187348846524617E-001 
      1.40000000 -0.856481151310277E+003  0.211104666888209E-001 
      1.42000000 -0.856478569259267E+003  0.236925176987838E-001 
      1.44000000 -0.856475784077333E+003  0.264776996325888E-001 
      1.46000000 -0.856472801718883E+003  0.294600580823337E-001 
      1.48000000 -0.856469630812982E+003  0.326309639831443E-001 
      1.50000000 -0.856466282680816E+003  0.359790961499349E-001 
      1.52000000 -0.856462771310029E+003  0.394904669369813E-001 
      1.54000000 -0.856459113285252E+003  0.431484917131674E-001 
      1.56000000 -0.856455327672251E+003  0.469341047144845E-001 
      1.58000000 -0.856451435855766E+003  0.508259211993448E-001 
      1.60000000 -0.856447461332161E+003  0.548004448048145E-001 
      1.62000000 -0.856443429457341E+003  0.588323196246496E-001 
      1.64000000 -0.856439367150209E+003  0.628946267566216E-001 
      1.66000000 -0.856435302557638E+003  0.669592193272621E-001 
      1.68000000 -0.856431264682821E+003  0.709970941446466E-001 
      1.70000000 -0.856427282978461E+003  0.749787985045508E-001 
      1.72000000 -0.856423386913557E+003  0.788748634084972E-001 
      1.74000000 -0.856419605517422E+003  0.826562595439499E-001 
      1.76000000 -0.856415966905257E+003  0.862948717086045E-001 
      1.78000000 -0.856412497792591E+003  0.897639843748398E-001 
      1.80000000 -0.856409223006603E+003  0.930387703626338E-001 
      1.82000000 -0.856406164998608E+003  0.960967783576085E-001 
      1.84000000 -0.856403343364978E+003  0.989184119879626E-001 
      1.86000000 -0.856400774386157E+003  0.101487390808622E+000 
      1.88000000 -0.856398470588163E+003  0.103791188802341E+000 
      1.90000000 -0.856396440334191E+003  0.105821442774703E+000 
      1.92000000 -0.856394687454084E+003  0.107574322881513E+000 
      1.94000000 -0.856393210918013E+003  0.109050858953060E+000 
      1.96000000 -0.856392004559337E+003  0.110257217628858E+000 
      1.98000000 -0.856391056853602E+003  0.111204923363902E+000 
      2.00000000 -0.856390350759384E+003  0.111911017581953E+000 
      2.02000000 -0.856389863624066E+003  0.112398152899300E+000 
      2.04000000 -0.856389567159762E+003  0.112694617203804E+000 
      2.06000000 -0.856389427493363E+003  0.112834283602864E+000 
      2.08000000 -0.856389405291739E+003  0.112856485226674E+000 
      2.10000000 -0.856389455964798E+003  0.112805812167030E+000 
      2.12000000 -0.856389529947491E+003  0.112731829474845E+000 
      2.14000000 -0.856389573059980E+003  0.112688716985402E+000 
      2.16000000 -0.856389526945389E+003  0.112734831576817E+000 
      2.18000000 -0.856389329582993E+003  0.112932193972997E+000 
      2.20000000 -0.856388915873509E+003  0.113345903456591E+000 
      2.22000000 -0.856388218292470E+003  0.114043484496006E+000 
      2.24000000 -0.856387167606013E+003  0.115094170952173E+000 
      2.26000000 -0.856385693642602E+003  0.116568134363312E+000 
      2.28000000 -0.856383726113056E+003  0.118535663909776E+000 
      2.30000000 -0.856381195469951E+003  0.121066307014683E+000 
      2.32000000 -0.856378033796493E+003  0.124227980472244E+000 
      2.34000000 -0.856374175714069E+003  0.128086062896294E+000 
      2.36000000 -0.856369559296503E+003  0.132702480462925E+000 
      2.38000000 -0.856364126979377E+003  0.138134797588823E+000 
      2.40000000 -0.856357826448868E+003  0.144435328097773E+000 
      2.42000000 -0.856350611499574E+003  0.151650277391772E+000 
      2.44000000 -0.856342442846083E+003  0.159818930882693E+000 
      2.46000000 -0.856333288873322E+003  0.168972903643713E+000 
      2.48000000 -0.856323126314510E+003  0.179135462456024E+000 
      2.50000000 -0.856311940844161E+003  0.190320932804861E+000 
      2.52000000 -0.856299727571544E+003  0.202534205421891E+000 
      2.54000000 -0.856286491426230E+003  0.215770350735887E+000 
      2.56000000 -0.856272247427515E+003  0.230014349450364E+000 
      2.58000000 -0.856257020828159E+003  0.245240948806261E+000 
      2.60000000 -0.856240847125943E+003  0.261414651022112E+000 
      2.62000000 -0.856223771945381E+003  0.278489831584192E+000 
      2.64000000 -0.856205850781404E+003  0.296410995561396E+000 
      2.66000000 -0.856187148608840E+003  0.315113168125167E+000 
      2.68000000 -0.856167739364639E+003  0.334522412326293E+000 
      2.70000000 -0.856147705302586E+003  0.354556474379932E+000 
      2.72000000 -0.856127136231310E+003  0.375125545655897E+000 
      2.74000000 -0.856106128647124E+003  0.396133129841259E+000 
      2.76000000 -0.856084784771432E+003  0.417477005533105E+000 
      2.78000000 -0.856063211503642E+003  0.439050273323247E+000 
      2.80000000 -0.856041519308865E+003  0.460742468100452E+000 
      2.82000000 -0.856019821052409E+003  0.482440724556961E+000 
      2.84000000 -0.855998230793866E+003  0.504030983099148E+000 
      2.86000000 -0.855976862560809E+003  0.525399216156928E+000 
      2.88000000 -0.855955829115496E+003  0.546432661469666E+000 
      2.90000000 -0.855935240725704E+003  0.567021051261109E+000 
      2.92000000 -0.855915203956316E+003  0.587057820649940E+000 
      2.94000000 -0.855895820493624E+003  0.606441283341324E+000 
      2.96000000 -0.855877186010339E+003  0.625075766626699E+000 
      2.98000000 -0.855859389080910E+003  0.642872696055058E+000 
      3.00000000 -0.855842510158636E+003  0.659751618329173E+000 
      3.02000000 -0.855826620615428E+003  0.675641161537282E+000 
      3.04000000 -0.855811781852064E+003  0.690479924901502E+000 
      3.06000000 -0.855798044483000E+003  0.704217293965932E+000 
      3.08000000 -0.855785447598965E+003  0.716814178000742E+000 
      3.10000000 -0.855774018108957E+003  0.728243668008948E+000 
      3.12000000 -0.855763770165743E+003  0.738491611222483E+000 
      3.14000000 -0.855754704679504E+003  0.747557097461698E+000 
      3.16000000 -0.855746808919306E+003  0.755452857659818E+000 
      3.18000000 -0.855740056210835E+003  0.762205566130199E+000 
      3.20000000 -0.855734405736214E+003  0.767856040751452E+000 
      3.22000000 -0.855729802439579E+003  0.772459337386874E+000 
      3.24000000 -0.855726177048398E+003  0.776084728567198E+000 
      3.26000000 -0.855723446219069E+003  0.778815557896832E+000 
      3.28000000 -0.855721512815308E+003  0.780748961657997E+000 
      3.30000000 -0.855720266328352E+003  0.781995448613739E+000 
      3.32000000 -0.855719583449605E+003  0.782678327360268E+000 
      3.34000000 -0.855719328802999E+003  0.782932973966561E+000 
      3.36000000 -0.855719355844411E+003  0.782905932554263E+000 
      3.38000000 -0.855719507933477E+003  0.782753843488736E+000 
      3.40000000 -0.855719619579790E+003  0.782642197175336E+000 
      3.42000000 -0.855719517862776E+003  0.782743914189095E+000 
      3.44000000 -0.855719024020341E+003  0.783237756624289E+000 
      3.46000000 -0.855717955197152E+003  0.784306579813624E+000 
      3.48000000 -0.855716126338875E+003  0.786135438090959E+000 
      3.50000000 -0.855713352212923E+003  0.788909564042696E+000 
      3.52000000 -0.855709449533200E+003  0.792812243765996E+000 
      3.54000000 -0.855704239159634E+003  0.798022617331961E+000 
      3.56000000 -0.855697548339426E+003  0.804713437539477E+000 
      3.58000000 -0.855689212954117E+003  0.813048822848875E+000 
      3.60000000 -0.855679079733847E+003  0.823182043118434E+000 
      3.62000000 -0.855667008395507E+003  0.835253381458325E+000 
      3.64000000 -0.855652873662115E+003  0.849388114850136E+000 
      3.66000000 -0.855636567125065E+003  0.865694651900553E+000 
      3.68000000 -0.855617998904281E+003  0.884262872685038E+000 
      3.70000000 -0.855597099068942E+003  0.905162708023001E+000 
      3.72000000 -0.855573818787274E+003  0.928442989691189E+000 
      3.74000000 -0.855548131177733E+003  0.954130599232256E+000 
      3.76000000 -0.855520031834896E+003  0.982229942069218E+000 
      3.78000000 -0.855489539020455E+003  0.101272275651046E+001 
      3.80000000 -0.855456693516129E+003  0.104556826083694E+001 
      3.82000000 -0.855421558135167E+003  0.108070364179882E+001 
      3.84000000 -0.855384216909315E+003  0.111804486765098E+001 
      3.86000000 -0.855344773976156E+003  0.115748780080923E+001 
      3.88000000 -0.855303352192547E+003  0.119890958441906E+001 
      3.90000000 -0.855260091515210E+003  0.124217026175546E+001 
      3.92000000 -0.855215147199103E+003  0.128711457786211E+001 
      3.94000000 -0.855168687859052E+003  0.133357391791332E+001 
      3.96000000 -0.855120893452866E+003  0.138136832410000E+001 
      3.98000000 -0.855071953242774E+003  0.143030853419188E+001 
      4.00000000 -0.855022063792245E+003  0.148019798472035E+001 
      4.02000000 -0.854971427040296E+003  0.153083473666907E+001 
      4.04000000 -0.854920248509639E+003  0.158201326732630E+001 
      4.06000000 -0.854868735676666E+003  0.163352610029917E+001 
      4.08000000 -0.854817096524924E+003  0.168516525204137E+001 
      4.10000000 -0.854765538295377E+003  0.173672348158872E+001 
      4.12000000 -0.854714266433427E+003  0.178799534353864E+001 
      4.14000000 -0.854663483708958E+003  0.183877806800746E+001 
      4.16000000 -0.854613389473969E+003  0.188887230299614E+001 
      4.18000000 -0.854564179029041E+003  0.193808274792490E+001 
      4.20000000 -0.854516043035499E+003  0.198621874146651E+001 
      4.22000000 -0.854469166909502E+003  0.203309486746338E+001 
      4.24000000 -0.854423730145522E+003  0.207853163144307E+001 
      4.26000000 -0.854379905508414E+003  0.212235626855168E+001 
      4.28000000 -0.854337858029637E+003  0.216440374732858E+001 
      4.30000000 -0.854297743766607E+003  0.220451801035893E+001 
      4.32000000 -0.854259708302247E+003  0.224255347471815E+001 
      4.34000000 -0.854223884959284E+003  0.227837681768134E+001 
      4.36000000 -0.854190392741337E+003  0.231186903562882E+001 
      4.38000000 -0.854159334031006E+003  0.234292774595934E+001 
      4.40000000 -0.854130792093820E+003  0.237146968314582E+001 
      4.42000000 -0.854104828462037E+003  0.239743331492814E+001 
      4.44000000 -0.854081480284337E+003  0.242078149262820E+001 
      4.46000000 -0.854060757755767E+003  0.244150402119885E+001 
      4.48000000 -0.854042641743076E+003  0.245962003388999E+001 
      4.50000000 -0.854027081721248E+003  0.247518005571739E+001 
      4.52000000 -0.854013994147345E+003  0.248826762962064E+001 
      4.54000000 -0.854003261383554E+003  0.249900039341185E+001 
      4.56000000 -0.853994731258152E+003  0.250753051881343E+001 
      4.58000000 -0.853988217343172E+003  0.251404443379394E+001 
      4.60000000 -0.853983499998581E+003  0.251876177838467E+001 
      4.62000000 -0.853980328200662E+003  0.252193357630303E+001 
      4.64000000 -0.853978422146156E+003  0.252383963080944E+001 
      4.66000000 -0.853977476594038E+003  0.252478518292717E+001 
      4.68000000 -0.853977164879096E+003  0.252509689786918E+001 
      4.70000000 -0.853977143507212E+003  0.252511826975376E+001 
      4.72000000 -0.853977057222445E+003  0.252520455452046E+001 
      4.74000000 -0.853976544422320E+003  0.252571735464577E+001 
      4.76000000 -0.853975242786286E+003  0.252701899067968E+001 
      4.78000000 -0.853972794978723E+003  0.252946679824305E+001 
      4.80000000 -0.853968854288411E+003  0.253340748855448E+001 
      4.82000000 -0.853963090068935E+003  0.253917170803103E+001 
      4.84000000 -0.853955192855106E+003  0.254706892185958E+001 
      4.86000000 -0.853944879042563E+003  0.255738273440230E+001 
      4.88000000 -0.853931895028343E+003  0.257036674862297E+001 
      4.90000000 -0.853916020730875E+003  0.258624104609051E+001 
      4.92000000 -0.853897072425072E+003  0.260518935189362E+001 
      4.94000000 -0.853874904842470E+003  0.262735693449512E+001 
      4.96000000 -0.853849412513496E+003  0.265284926346983E+001 
      4.98000000 -0.853820530344489E+003  0.268173143247665E+001 
      5.00000000 -0.853788233436338E+003  0.271402834062765E+001 
      5.02000000 -0.853752536181788E+003  0.274972559517763E+001 
      5.04000000 -0.853713490688823E+003  0.278877108814211E+001 
      5.06000000 -0.853671184591810E+003  0.283107718515525E+001 
      5.08000000 -0.853625738331288E+003  0.287652344567737E+001 
      5.10000000 -0.853577301992780E+003  0.292495978418585E+001 
      5.12000000 -0.853526051809670E+003  0.297620996729533E+001 
      5.14000000 -0.853472186427849E+003  0.303007534911671E+001 
      5.16000000 -0.853415923045186E+003  0.308633873177988E+001 
      5.18000000 -0.853357493539773E+003  0.314476823719268E+001 
      5.20000000 -0.853297140688051E+003  0.320512108891445E+001 
      5.22000000 -0.853235114563544E+003  0.326714721342194E+001 
      5.24000000 -0.853171669213474E+003  0.333059256349190E+001 
      5.26000000 -0.853107059687344E+003  0.339520208962176E+001 
      5.28000000 -0.853041539461560E+003  0.346072231540519E+001 
      5.30000000 -0.852975358311250E+003  0.352690346571585E+001 
      5.32000000 -0.852908760648511E+003  0.359350112845421E+001 
      5.34000000 -0.852841984316022E+003  0.366027746094310E+001 
      5.36000000 -0.852775259818282E+003  0.372700195868340E+001 
      5.38000000 -0.852708809951574E+003  0.379345182539156E+001 
      5.40000000 -0.852642849762074E+003  0.385941201489124E+001 
      5.42000000 -0.852577586765396E+003  0.392467501156972E+001 
      5.44000000 -0.852513221338520E+003  0.398904043844588E+001 
      5.46000000 -0.852449947195172E+003  0.405231458179397E+001 
      5.48000000 -0.852387951854356E+003  0.411430992260933E+001 
      5.50000000 -0.852327417027283E+003  0.417484474968278E+001 
      5.52000000 -0.852268518845487E+003  0.423374293147885E+001 
      5.54000000 -0.852211427880040E+003  0.429083389692558E+001 
      5.56000000 -0.852156308912815E+003  0.434595286415070E+001 
      5.58000000 -0.852103320436651E+003  0.439894134031485E+001 
      5.60000000 -0.852052613866946E+003  0.444964791001924E+001 
      5.62000000 -0.852004332473517E+003  0.449792930344837E+001 
      5.64000000 -0.851958610030837E+003  0.454365174612809E+001 
      5.66000000 -0.851915569195381E+003  0.458669258158470E+001 
      5.68000000 -0.851875319633795E+003  0.462694214317011E+001 
      5.70000000 -0.851837955918973E+003  0.466430585799273E+001 
      5.72000000 -0.851803555225782E+003  0.469870655118402E+001 
      5.74000000 -0.851772174877405E+003  0.473008689956082E+001 
      5.76000000 -0.851743849804148E+003  0.475841197281744E+001 
      5.78000000 -0.851718589992862E+003  0.478367178410318E+001 
      5.80000000 -0.851696378030487E+003  0.480588374647853E+001 
      5.82000000 -0.851677166855955E+003  0.482509492101082E+001 
      5.84000000 -0.851660877844852E+003  0.484138393211334E+001 
      5.86000000 -0.851647399357088E+003  0.485486241987733E+001 
      5.88000000 -0.851636585873216E+003  0.486567590374970E+001 
      5.90000000 -0.851628257832204E+003  0.487400394476169E+001 
      5.92000000 -0.851622202263399E+003  0.488005951356701E+001 
      5.94000000 -0.851618174277459E+003  0.488408749950610E+001 
      5.96000000 -0.851615899450205E+003  0.488636232676009E+001 
      5.98000000 -0.851615077093775E+003  0.488718468319095E+001 
      6.00000000 -0.851615384372443E+003  0.488687740452226E+001 
