# Real time calculation: 
# Eall: Total energy
# Eall0: Initial total energy
# 1:Time[fs] 2:Eall[eV] 3:Eall-Eall0[eV] 
      0.00000000 -0.691422142616468E+004  0.000000000000000E+000 
      0.02000000 -0.691422142617353E+004 -0.884994844702618E-008 
      0.04000000 -0.691422142617240E+004 -0.772156648563396E-008 
      0.06000000 -0.691422142616453E+004  0.146944875027089E-009 
      0.08000000 -0.691422142613566E+004  0.290192926356127E-007 
      0.10000000 -0.691422142605723E+004  0.107450732984282E-006 
      0.12000000 -0.691422142588020E+004  0.284482184476127E-006 
      0.14000000 -0.691422142552847E+004  0.636212530917283E-006 
      0.16000000 -0.691422142489213E+004  0.127255035167538E-005 
      0.18000000 -0.691422142382083E+004  0.234385273645445E-005 
      0.20000000 -0.691422142211730E+004  0.404738080567309E-005 
      0.22000000 -0.691422141953131E+004  0.663337472095572E-005 
      0.24000000 -0.691422141575415E+004  0.104105308620007E-004 
      0.26000000 -0.691422141041409E+004  0.157505903736516E-004 
      0.28000000 -0.691422140307257E+004  0.230921102354266E-004 
      0.30000000 -0.691422139322161E+004  0.329430719197479E-004 
      0.32000000 -0.691422138028227E+004  0.458824096186411E-004 
      0.34000000 -0.691422136360433E+004  0.625603513105248E-004 
      0.36000000 -0.691422134246698E+004  0.836977002771108E-004 
      0.38000000 -0.691422131608077E+004  0.110083909352147E-003 
      0.40000000 -0.691422128359061E+004  0.142574066231299E-003 
      0.42000000 -0.691422124407959E+004  0.182085088373276E-003 
      0.44000000 -0.691422119657352E+004  0.229591158427982E-003 
      0.46000000 -0.691422114004643E+004  0.286118251700009E-003 
      0.48000000 -0.691422107342662E+004  0.352738065005116E-003 
      0.50000000 -0.691422099560322E+004  0.430561464475593E-003 
      0.52000000 -0.691422090543313E+004  0.520731554402520E-003 
      0.54000000 -0.691422080174832E+004  0.624416364021362E-003 
      0.56000000 -0.691422068336348E+004  0.742801201738095E-003 
      0.58000000 -0.691422054908403E+004  0.877080651273887E-003 
      0.60000000 -0.691422039771423E+004  0.102845045644103E-002 
      0.62000000 -0.691422022806513E+004  0.119809955441051E-002 
      0.64000000 -0.691422003896219E+004  0.138720248639594E-002 
      0.66000000 -0.691421982925244E+004  0.159691223679777E-002 
      0.68000000 -0.691421959781113E+004  0.182835354721146E-002 
      0.70000000 -0.691421934354763E+004  0.208261704636642E-002 
      0.72000000 -0.691421906541054E+004  0.236075413799118E-002 
      0.74000000 -0.691421876239196E+004  0.266377271930372E-002 
      0.76000000 -0.691421843353078E+004  0.299263389718027E-002 
      0.78000000 -0.691421807791522E+004  0.334824946302356E-002 
      0.80000000 -0.691421769468491E+004  0.373147977288974E-002 
      0.82000000 -0.691421728303229E+004  0.414313239404867E-002 
      0.84000000 -0.691421684220300E+004  0.458396168580437E-002 
      0.86000000 -0.691421637149527E+004  0.505466941589007E-002 
      0.88000000 -0.691421587025877E+004  0.555590591514562E-002 
      0.90000000 -0.691421533789256E+004  0.608827212314477E-002 
      0.92000000 -0.691421477384215E+004  0.665232253637343E-002 
      0.94000000 -0.691421417759580E+004  0.724856888030476E-002 
      0.96000000 -0.691421354868025E+004  0.787748443499225E-002 
      0.98000000 -0.691421288665569E+004  0.853950899175237E-002 
      1.00000000 -0.691421219111048E+004  0.923505419963784E-002 
      1.02000000 -0.691421146165564E+004  0.996450904338789E-002 
      1.04000000 -0.691421069791909E+004  0.107282455912931E-001 
      1.06000000 -0.691420989954016E+004  0.115266245180023E-001 
      1.08000000 -0.691420906616408E+004  0.123600006033549E-001 
      1.10000000 -0.691420819743679E+004  0.132287278870521E-001 
      1.12000000 -0.691420729299997E+004  0.141331647104128E-001 
      1.14000000 -0.691420635248664E+004  0.150736780458341E-001 
      1.16000000 -0.691420537551696E+004  0.160506477210692E-001 
      1.18000000 -0.691420436169419E+004  0.170644704911477E-001 
      1.20000000 -0.691420331060097E+004  0.181155637158642E-001 
      1.22000000 -0.691420222179655E+004  0.192043681285291E-001 
      1.24000000 -0.691420109481454E+004  0.203313501368162E-001 
      1.26000000 -0.691419992916123E+004  0.214970034523038E-001 
      1.28000000 -0.691419872431463E+004  0.227018500518034E-001 
      1.30000000 -0.691419747972414E+004  0.239464405385353E-001 
      1.32000000 -0.691419619481073E+004  0.252313539549665E-001 
      1.34000000 -0.691419486896784E+004  0.265571968369505E-001 
      1.36000000 -0.691419350156296E+004  0.279246017187560E-001 
      1.38000000 -0.691419209193995E+004  0.293342247339984E-001 
      1.40000000 -0.691419063942190E+004  0.307867427811511E-001 
      1.42000000 -0.691418914331455E+004  0.322828501314384E-001 
      1.44000000 -0.691418760291048E+004  0.338232541991439E-001 
      1.46000000 -0.691418601749405E+004  0.354086706297841E-001 
      1.48000000 -0.691418438634674E+004  0.370398179451281E-001 
      1.50000000 -0.691418270875284E+004  0.387174118409632E-001 
      1.52000000 -0.691418098400561E+004  0.404421590718677E-001 
      1.54000000 -0.691417921141295E+004  0.422147517319617E-001 
      1.56000000 -0.691417739030342E+004  0.440358612626497E-001 
      1.58000000 -0.691417552003243E+004  0.459061322492270E-001 
      1.60000000 -0.691417359998903E+004  0.478261756529078E-001 
      1.62000000 -0.691417162960266E+004  0.497965620196520E-001 
      1.64000000 -0.691416960834984E+004  0.518178148374833E-001 
      1.66000000 -0.691416753576049E+004  0.538904041915642E-001 
      1.68000000 -0.691416541142421E+004  0.560147404741821E-001 
      1.70000000 -0.691416323499670E+004  0.581911679802727E-001 
      1.72000000 -0.691416100620576E+004  0.604199589167097E-001 
      1.74000000 -0.691415872485689E+004  0.627013077905571E-001 
      1.76000000 -0.691415639083815E+004  0.650353265351401E-001 
      1.78000000 -0.691415400412504E+004  0.674220396376620E-001 
      1.80000000 -0.691415156478412E+004  0.698613805653503E-001 
      1.82000000 -0.691414907297579E+004  0.723531888953915E-001 
      1.84000000 -0.691414652895612E+004  0.748972085562324E-001 
      1.86000000 -0.691414393307827E+004  0.774930864091761E-001 
      1.88000000 -0.691414128579298E+004  0.801403717046854E-001 
      1.90000000 -0.691413858764852E+004  0.828385161574022E-001 
      1.92000000 -0.691413583929009E+004  0.855868745911582E-001 
      1.94000000 -0.691413304145845E+004  0.883847062274495E-001 
      1.96000000 -0.691413019498755E+004  0.912311771309084E-001 
      1.98000000 -0.691412730080142E+004  0.941253632665305E-001 
      2.00000000 -0.691412435991076E+004  0.970662539219434E-001 
      2.02000000 -0.691412137340845E+004  0.100052756227122E+000 
      2.04000000 -0.691411834246461E+004  0.103083700075493E+000 
      2.06000000 -0.691411526832110E+004  0.106157843583328E+000 
      2.08000000 -0.691411215228589E+004  0.109273878792748E+000 
      2.10000000 -0.691410899572686E+004  0.112430437818659E+000 
      2.12000000 -0.691410580006587E+004  0.115626098806209E+000 
      2.14000000 -0.691410256677213E+004  0.118859392554907E+000 
      2.16000000 -0.691409929735582E+004  0.122128808865097E+000 
      2.18000000 -0.691409599336184E+004  0.125432802839567E+000 
      2.20000000 -0.691409265636360E+004  0.128769801076897E+000 
      2.22000000 -0.691408928795741E+004  0.132138207273145E+000 
      2.24000000 -0.691408588975682E+004  0.135536407859122E+000 
      2.26000000 -0.691408246338797E+004  0.138962776707264E+000 
      2.28000000 -0.691407901048461E+004  0.142415680073623E+000 
      2.30000000 -0.691407553268426E+004  0.145893480416887E+000 
      2.32000000 -0.691407203162414E+004  0.149394540538355E+000 
      2.34000000 -0.691406850893834E+004  0.152917226337545E+000 
      2.36000000 -0.691406496625503E+004  0.156459909653641E+000 
      2.38000000 -0.691406140519431E+004  0.160020970376086E+000 
      2.40000000 -0.691405782736661E+004  0.163598798074896E+000 
      2.42000000 -0.691405423437200E+004  0.167191792680475E+000 
      2.44000000 -0.691405062779994E+004  0.170798364737285E+000 
      2.46000000 -0.691404700922972E+004  0.174416934964565E+000 
      2.48000000 -0.691404338023143E+004  0.178045933253231E+000 
      2.50000000 -0.691403974236758E+004  0.181683797101302E+000 
      2.52000000 -0.691403609719522E+004  0.185328969465417E+000 
      2.54000000 -0.691403244626865E+004  0.188979896034612E+000 
      2.56000000 -0.691402879114242E+004  0.192635022256627E+000 
      2.58000000 -0.691402513337470E+004  0.196292789979823E+000 
      2.60000000 -0.691402147453088E+004  0.199951633801993E+000 
      2.62000000 -0.691401781618741E+004  0.203609977269131E+000 
      2.64000000 -0.691401415993577E+004  0.207266228909460E+000 
      2.66000000 -0.691401050738597E+004  0.210918778711405E+000 
      2.68000000 -0.691400686017005E+004  0.214565994630163E+000 
      2.70000000 -0.691400321994549E+004  0.218206219194055E+000 
      2.72000000 -0.691399958839851E+004  0.221837766175066E+000 
      2.74000000 -0.691399596724694E+004  0.225458917737335E+000 
      2.76000000 -0.691399235824331E+004  0.229067921375293E+000 
      2.78000000 -0.691398876317718E+004  0.232662987500671E+000 
      2.80000000 -0.691398518387731E+004  0.236242287375219E+000 
      2.82000000 -0.691398162221336E+004  0.239803951322617E+000 
      2.84000000 -0.691397808009705E+004  0.243346067632578E+000 
      2.86000000 -0.691397455948260E+004  0.246866682084436E+000 
      2.88000000 -0.691397106236678E+004  0.250363797899194E+000 
      2.90000000 -0.691396759078839E+004  0.253835376295599E+000 
      2.92000000 -0.691396414682676E+004  0.257279337920915E+000 
      2.94000000 -0.691396073259999E+004  0.260693564693151E+000 
      2.96000000 -0.691395735026229E+004  0.264075902395028E+000 
      2.98000000 -0.691395400200046E+004  0.267424164223076E+000 
      3.00000000 -0.691395069003036E+004  0.270736134324373E+000 
      3.02000000 -0.691394741659204E+004  0.274009572639535E+000 
      3.04000000 -0.691394418394492E+004  0.277242219759631E+000 
      3.06000000 -0.691394099436152E+004  0.280431803165928E+000 
      3.08000000 -0.691393785012161E+004  0.283576043068241E+000 
      3.10000000 -0.691393475350566E+004  0.286672659025187E+000 
      3.12000000 -0.691393170678805E+004  0.289719376634046E+000 
      3.14000000 -0.691392871223098E+004  0.292713933697800E+000 
      3.16000000 -0.691392577207732E+004  0.295654087362019E+000 
      3.18000000 -0.691392288854155E+004  0.298537623134182E+000 
      3.20000000 -0.691392006380051E+004  0.301362364170589E+000 
      3.22000000 -0.691391729998435E+004  0.304126180326622E+000 
      3.24000000 -0.691391459916694E+004  0.306826997746059E+000 
      3.26000000 -0.691391196335532E+004  0.309462809360668E+000 
      3.28000000 -0.691390939447476E+004  0.312031689918806E+000 
      3.30000000 -0.691390689434424E+004  0.314531820440135E+000 
      3.32000000 -0.691390446463376E+004  0.316961530920899E+000 
      3.34000000 -0.691390210679152E+004  0.319319373158257E+000 
      3.36000000 -0.691389982192507E+004  0.321604239607030E+000 
      3.38000000 -0.691389761061772E+004  0.323815546963350E+000 
      3.40000000 -0.691389547265882E+004  0.325953505861868E+000 
      3.42000000 -0.691389340666610E+004  0.328019498582087E+000 
      3.44000000 -0.691389140957833E+004  0.330016586352343E+000 
      3.46000000 -0.691388947600245E+004  0.331950162236711E+000 
      3.48000000 -0.691388759740293E+004  0.333828761747127E+000 
      3.50000000 -0.691388576113347E+004  0.335665031213983E+000 
      3.52000000 -0.691388394932096E+004  0.337476843718762E+000 
      3.54000000 -0.691388213762845E+004  0.339288536233769E+000 
      3.56000000 -0.691388029393913E+004  0.341132225552159E+000 
      3.58000000 -0.691387837702225E+004  0.343049142429843E+000 
      3.60000000 -0.691387633526014E+004  0.345090904537230E+000 
      3.62000000 -0.691387410553080E+004  0.347320633882974E+000 
      3.64000000 -0.691387161235746E+004  0.349813807224949E+000 
      3.66000000 -0.691386876744477E+004  0.352658719912579E+000 
      3.68000000 -0.691386546972791E+004  0.355956436774764E+000 
      3.70000000 -0.691386160605881E+004  0.359820105872622E+000 
      3.72000000 -0.691385705264560E+004  0.364373519080082E+000 
      3.74000000 -0.691385167734336E+004  0.369748821324651E+000 
      3.76000000 -0.691384534286694E+004  0.376083297736719E+000 
      3.78000000 -0.691383791096288E+004  0.383515201796384E+000 
      3.80000000 -0.691382924752933E+004  0.392178635354834E+000 
      3.82000000 -0.691381922862365E+004  0.402197541028238E+000 
      3.84000000 -0.691380774723552E+004  0.413678929158884E+000 
      3.86000000 -0.691379472063963E+004  0.426705525054031E+000 
      3.88000000 -0.691378009807625E+004  0.441328088435611E+000 
      3.90000000 -0.691376386844161E+004  0.457557723069362E+000 
      3.92000000 -0.691374606760750E+004  0.475358557180746E+000 
      3.94000000 -0.691372678493606E+004  0.494641228619880E+000 
      3.96000000 -0.691370616851209E+004  0.515257652589963E+000 
      3.98000000 -0.691368442858591E+004  0.536997578769841E+000 
      4.00000000 -0.691366183870848E+004  0.559587456200424E+000 
      4.02000000 -0.691363873405044E+004  0.582692114241251E+000 
      4.04000000 -0.691361550642731E+004  0.605919737368346E+000 
      4.06000000 -0.691359259561161E+004  0.628830553071094E+000 
      4.08000000 -0.691357047659292E+004  0.650949571758664E+000 
      4.10000000 -0.691354964255592E+004  0.671783608759213E+000 
      4.12000000 -0.691353058347537E+004  0.690842689308060E+000 
      4.14000000 -0.691351376038236E+004  0.707665782321510E+000 
      4.16000000 -0.691349957552376E+004  0.721850640926508E+000 
      4.18000000 -0.691348833882385E+004  0.733087340834856E+000 
      4.20000000 -0.691348023124657E+004  0.741194918106587E+000 
      4.22000000 -0.691347526585363E+004  0.746160311050738E+000 
      4.24000000 -0.691347324753983E+004  0.748178624851967E+000 
      4.26000000 -0.691347373260688E+004  0.747693557804811E+000 
      4.28000000 -0.691347598949218E+004  0.745436672503239E+000 
      4.30000000 -0.691347896210219E+004  0.742464062487195E+000 
      4.32000000 -0.691348123729694E+004  0.740188867737413E+000 
      4.34000000 -0.691348101813233E+004  0.740408032349535E+000 
      4.36000000 -0.691347610447968E+004  0.745321685000097E+000 
      4.38000000 -0.691346388260742E+004  0.757543557264701E+000 
      4.40000000 -0.691344132521979E+004  0.780100944887980E+000 
      4.42000000 -0.691340500330209E+004  0.816422862588933E+000 
      4.44000000 -0.691335111091707E+004  0.870315247612881E+000 
      4.46000000 -0.691327550383182E+004  0.945922332859616E+000 
      4.48000000 -0.691317375253185E+004  0.104767363282833E+001 
      4.50000000 -0.691304120979390E+004  0.118021637078482E+001 
      4.52000000 -0.691287309255112E+004  0.134833361356510E+001 
      4.54000000 -0.691266457729526E+004  0.155684886942120E+001 
      4.56000000 -0.691241090772548E+004  0.181051843920565E+001 
      4.58000000 -0.691210751278659E+004  0.211391337808710E+001 
      4.60000000 -0.691175013265627E+004  0.247129350841502E+001 
      4.62000000 -0.691133494965006E+004  0.288647651462643E+001 
      4.64000000 -0.691085872045065E+004  0.336270571402699E+001 
      4.66000000 -0.691031890555650E+004  0.390252060817660E+001 
      4.68000000 -0.690971379141228E+004  0.450763475239827E+001 
      4.70000000 -0.690904260038362E+004  0.517882578106112E+001 
      4.72000000 -0.690830558358826E+004  0.591584257641701E+001 
      4.74000000 -0.690750409166617E+004  0.671733449850793E+001 
      4.76000000 -0.690664061886738E+004  0.758080729729741E+001 
      4.78000000 -0.690571881642776E+004  0.850260973692126E+001 
      4.80000000 -0.690474347208297E+004  0.947795408170804E+001 
      4.82000000 -0.690372045376582E+004  0.105009723988581E+002 
      4.84000000 -0.690265661701610E+004  0.115648091485840E+002 
      4.86000000 -0.690155967737083E+004  0.126617487938494E+002 
      4.88000000 -0.690043805092378E+004  0.137833752408980E+002 
      4.90000000 -0.689930066822698E+004  0.149207579377033E+002 
      4.92000000 -0.689815676864351E+004  0.160646575211664E+002 
      4.94000000 -0.689701568394905E+004  0.172057422156329E+002 
      4.96000000 -0.689588662127029E+004  0.183348048943954E+002 
      4.98000000 -0.689477845611753E+004  0.194429700471530E+002 
      5.00000000 -0.689369954618873E+004  0.205218799759549E+002 
      5.02000000 -0.689265757561966E+004  0.215638505450213E+002 
      5.04000000 -0.689165943740107E+004  0.225619887636106E+002 
      5.06000000 -0.689071115879595E+004  0.235102673687285E+002 
      5.08000000 -0.688981787090783E+004  0.244035552568528E+002 
      5.10000000 -0.688898381933284E+004  0.252376068318454E+002 
      5.12000000 -0.688821240845983E+004  0.260090177048525E+002 
      5.14000000 -0.688750626789490E+004  0.267151582697865E+002 
      5.16000000 -0.688686732620744E+004  0.273540999572374E+002 
      5.18000000 -0.688629687520111E+004  0.279245509635707E+002 
      5.20000000 -0.688579560761198E+004  0.284258185527014E+002 
      5.22000000 -0.688536361278168E+004  0.288578133829983E+002 
      5.24000000 -0.688500031849387E+004  0.292211076708142E+002 
      5.26000000 -0.688470437259669E+004  0.295170535679951E+002 
      5.28000000 -0.688447346481080E+004  0.297479613538822E+002 
      5.30000000 -0.688430409659697E+004  0.299173295677069E+002 
      5.32000000 -0.688419131431913E+004  0.300301118455540E+002 
      5.34000000 -0.688412842736182E+004  0.300929988028616E+002 
      5.36000000 -0.688410673757219E+004  0.301146885924918E+002 
      5.38000000 -0.688411530881233E+004  0.301061173523537E+002 
      5.40000000 -0.688414080519878E+004  0.300806209659021E+002 
      5.42000000 -0.688416742374150E+004  0.300540024231831E+002 
      5.44000000 -0.688417694186465E+004  0.300444843000344E+002 
      5.46000000 -0.688414889320963E+004  0.300725329550489E+002 
      5.48000000 -0.688406087689435E+004  0.301605492703285E+002 
      5.50000000 -0.688388899678658E+004  0.303324293780982E+002 
      5.52000000 -0.688360841906034E+004  0.306130071043448E+002 
      5.54000000 -0.688319402892981E+004  0.310273972348759E+002 
      5.56000000 -0.688262116138992E+004  0.316002647747595E+002 
      5.58000000 -0.688186637622724E+004  0.323550499374380E+002 
      5.60000000 -0.688090824450555E+004  0.333131816591272E+002 
      5.62000000 -0.687972811202806E+004  0.344933141366227E+002 
      5.64000000 -0.687831080475926E+004  0.359106214054229E+002 
      5.66000000 -0.687664524161569E+004  0.375761845489936E+002 
      5.68000000 -0.687472492135429E+004  0.394965048103913E+002 
      5.70000000 -0.687254825244376E+004  0.416731737209193E+002 
      5.72000000 -0.687011869805257E+004  0.441027281121126E+002 
      5.74000000 -0.686744471287214E+004  0.467767132925427E+002 
      5.76000000 -0.686453945492822E+004  0.496819712364647E+002 
      5.78000000 -0.686142026420056E+004  0.528011619641228E+002 
      5.80000000 -0.685810791122483E+004  0.561135149398540E+002 
      5.82000000 -0.685462563295388E+004  0.595957932107968E+002 
      5.84000000 -0.685099798987359E+004  0.632234362910946E+002 
      5.86000000 -0.684724959692945E+004  0.669718292352341E+002 
      5.88000000 -0.684340380000181E+004  0.708176261628680E+002 
      5.90000000 -0.683948138761499E+004  0.747400385496906E+002 
      5.92000000 -0.683549944201713E+004  0.787219841475507E+002 
      5.94000000 -0.683147044205354E+004  0.827509841111415E+002 
      5.96000000 -0.682740172972502E+004  0.868196964396625E+002 
      5.98000000 -0.682329544039965E+004  0.909259857650280E+002 
      6.00000000 -0.681914897140954E+004  0.950724547551382E+002 
