# Real time calculation: 
# Eall: Total energy
# Eall0: Initial total energy
# 1:Time[fs] 2:Eall[eV] 3:Eall-Eall0[eV] 
      0.00000000 -0.340326187343901E+004  0.000000000000000E+000 
      0.02000000 -0.340326187343922E+004 -0.211136583591554E-009 
      0.04000000 -0.340326187343943E+004 -0.417632802708567E-009 
      0.06000000 -0.340326187343963E+004 -0.619875354390587E-009 
      0.08000000 -0.340326187343983E+004 -0.819024329756246E-009 
      0.10000000 -0.340326187344003E+004 -0.101507972880555E-008 
      0.12000000 -0.340326187344022E+004 -0.120804155153849E-008 
      0.14000000 -0.340326187344041E+004 -0.140061667723188E-008 
      0.16000000 -0.340326187344060E+004 -0.159164501476710E-008 
      0.18000000 -0.340326187344079E+004 -0.178035317006504E-008 
      0.20000000 -0.340326187344098E+004 -0.196906132536299E-008 
      0.22000000 -0.340326187344117E+004 -0.215544929842366E-008 
      0.24000000 -0.340326187344135E+004 -0.234222396852388E-008 
      0.26000000 -0.340326187344154E+004 -0.252745185046592E-008 
      0.28000000 -0.340326187344172E+004 -0.271190633832887E-008 
      0.30000000 -0.340326187344191E+004 -0.289752091731046E-008 
      0.32000000 -0.340326187344209E+004 -0.308236210221295E-008 
      0.34000000 -0.340326187344228E+004 -0.326526980191772E-008 
      0.36000000 -0.340326187344246E+004 -0.345011098682022E-008 
      0.38000000 -0.340326187344265E+004 -0.363301868652499E-008 
      0.40000000 -0.340326187344283E+004 -0.381669978030885E-008 
      0.42000000 -0.340326187344301E+004 -0.399999417705317E-008 
      0.44000000 -0.340326187344320E+004 -0.418290187675794E-008 
      0.46000000 -0.340326187344338E+004 -0.436580957646271E-008 
      0.48000000 -0.340326187344356E+004 -0.454833057912794E-008 
      0.50000000 -0.340326187344374E+004 -0.473123827883271E-008 
      0.52000000 -0.340326187344393E+004 -0.491491937261657E-008 
      0.54000000 -0.340326187344411E+004 -0.509705367824225E-008 
      0.56000000 -0.340326187344429E+004 -0.527996137794702E-008 
      0.58000000 -0.340326187344448E+004 -0.546286907765179E-008 
      0.60000000 -0.340326187344466E+004 -0.564461668623792E-008 
      0.62000000 -0.340326187344484E+004 -0.582752438594269E-008 
      0.64000000 -0.340326187344502E+004 -0.601043208564747E-008 
      0.66000000 -0.340326187344521E+004 -0.619256639127315E-008 
      0.68000000 -0.340326187344539E+004 -0.637586078801746E-008 
      0.70000000 -0.340326187344557E+004 -0.655760839660360E-008 
      0.72000000 -0.340326187344575E+004 -0.674090279334791E-008 
      0.74000000 -0.340326187344594E+004 -0.692265040193405E-008 
      0.76000000 -0.340326187344612E+004 -0.710517140459928E-008 
      0.78000000 -0.340326187344630E+004 -0.728769240726450E-008 
      0.80000000 -0.340326187344648E+004 -0.746982671289018E-008 
      0.82000000 -0.340326187344667E+004 -0.765273441259495E-008 
      0.84000000 -0.340326187344685E+004 -0.783525541526018E-008 
      0.86000000 -0.340326187344703E+004 -0.801777641792540E-008 
      0.88000000 -0.340326187344721E+004 -0.820029742059063E-008 
      0.90000000 -0.340326187344740E+004 -0.838281842325586E-008 
      0.92000000 -0.340326187344758E+004 -0.856495272888154E-008 
      0.94000000 -0.340326187344776E+004 -0.874708703450722E-008 
      0.96000000 -0.340326187344794E+004 -0.892960803717244E-008 
      0.98000000 -0.340326187344812E+004 -0.911212903983767E-008 
      1.00000000 -0.340326187344831E+004 -0.929542343658198E-008 
      1.02000000 -0.340326187344849E+004 -0.947755774220767E-008 
      1.04000000 -0.340326187344867E+004 -0.966007874487289E-008 
      1.06000000 -0.340326187344885E+004 -0.984221305049857E-008 
      1.08000000 -0.340326187344904E+004 -0.100247340531638E-007 
      1.10000000 -0.340326187344922E+004 -0.102064816617499E-007 
      1.12000000 -0.340326187344940E+004 -0.103893893614547E-007 
      1.14000000 -0.340326187344958E+004 -0.105719103641199E-007 
      1.16000000 -0.340326187344977E+004 -0.107552047608642E-007 
      1.18000000 -0.340326187344995E+004 -0.109365656724108E-007 
      1.20000000 -0.340326187345013E+004 -0.111186999780365E-007 
      1.22000000 -0.340326187345031E+004 -0.113016076777413E-007 
      1.24000000 -0.340326187345050E+004 -0.114849020744856E-007 
      1.26000000 -0.340326187345068E+004 -0.116670363801113E-007 
      1.28000000 -0.340326187345086E+004 -0.118483972916579E-007 
      1.30000000 -0.340326187345104E+004 -0.120309182943231E-007 
      1.32000000 -0.340326187345123E+004 -0.122138259940279E-007 
      1.34000000 -0.340326187345141E+004 -0.123959602996536E-007 
      1.36000000 -0.340326187345159E+004 -0.125784813023188E-007 
      1.38000000 -0.340326187345177E+004 -0.127613890020235E-007 
      1.40000000 -0.340326187345196E+004 -0.129431366106097E-007 
      1.42000000 -0.340326187345214E+004 -0.131252709162354E-007 
      1.44000000 -0.340326187345232E+004 -0.133077919189006E-007 
      1.46000000 -0.340326187345250E+004 -0.134899262245263E-007 
      1.48000000 -0.340326187345268E+004 -0.136716738331124E-007 
      1.50000000 -0.340326187345287E+004 -0.138530347446590E-007 
      1.52000000 -0.340326187345305E+004 -0.140340089591660E-007 
      1.54000000 -0.340326187345323E+004 -0.142165299618313E-007 
      1.56000000 -0.340326187345341E+004 -0.143975041763383E-007 
      1.58000000 -0.340326187345359E+004 -0.145769316026872E-007 
      1.60000000 -0.340326187345377E+004 -0.147563590290360E-007 
      1.62000000 -0.340326187345395E+004 -0.149369465465035E-007 
      1.64000000 -0.340326187345413E+004 -0.151152138817338E-007 
      1.66000000 -0.340326187345430E+004 -0.152923211258454E-007 
      1.68000000 -0.340326187345448E+004 -0.154694283699570E-007 
      1.70000000 -0.340326187345466E+004 -0.156453755229499E-007 
      1.72000000 -0.340326187345483E+004 -0.158197758877847E-007 
      1.74000000 -0.340326187345501E+004 -0.159930161615009E-007 
      1.76000000 -0.340326187345518E+004 -0.161643229500193E-007 
      1.78000000 -0.340326187345535E+004 -0.163348563444586E-007 
      1.80000000 -0.340326187345552E+004 -0.165026828596211E-007 
      1.82000000 -0.340326187345568E+004 -0.166689625866255E-007 
      1.84000000 -0.340326187345584E+004 -0.168321487373134E-007 
      1.86000000 -0.340326187345601E+004 -0.169941747968828E-007 
      1.88000000 -0.340326187345617E+004 -0.171542673712544E-007 
      1.90000000 -0.340326187345632E+004 -0.173116530663492E-007 
      1.92000000 -0.340326187345648E+004 -0.174671052762463E-007 
      1.94000000 -0.340326187345663E+004 -0.176202373039061E-007 
      1.96000000 -0.340326187345678E+004 -0.177710491493286E-007 
      1.98000000 -0.340326187345693E+004 -0.179214742977116E-007 
      2.00000000 -0.340326187345708E+004 -0.180703526579364E-007 
      2.02000000 -0.340326187345723E+004 -0.182169108359240E-007 
      2.04000000 -0.340326187345738E+004 -0.183650158020697E-007 
      2.06000000 -0.340326187345752E+004 -0.185108005859782E-007 
      2.08000000 -0.340326187345767E+004 -0.186589055521239E-007 
      2.10000000 -0.340326187345782E+004 -0.188077839123487E-007 
      2.12000000 -0.340326187345797E+004 -0.189582090607317E-007 
      2.14000000 -0.340326187345812E+004 -0.191121144824706E-007 
      2.16000000 -0.340326187345828E+004 -0.192691134805258E-007 
      2.18000000 -0.340326187345844E+004 -0.194299794489766E-007 
      2.20000000 -0.340326187345861E+004 -0.195954857819018E-007 
      2.22000000 -0.340326187345878E+004 -0.197660191763411E-007 
      2.24000000 -0.340326187345895E+004 -0.199411929352550E-007 
      2.26000000 -0.340326187345913E+004 -0.201217804527225E-007 
      2.28000000 -0.340326187345932E+004 -0.203070083346645E-007 
      2.30000000 -0.340326187345951E+004 -0.204953297929229E-007 
      2.32000000 -0.340326187345970E+004 -0.206859714334186E-007 
      2.34000000 -0.340326187345989E+004 -0.208773864679934E-007 
      2.36000000 -0.340326187346008E+004 -0.210672547144100E-007 
      2.38000000 -0.340326187346026E+004 -0.212497757170752E-007 
      2.40000000 -0.340326187346044E+004 -0.214230159907913E-007 
      2.42000000 -0.340326187346059E+004 -0.215811750799652E-007 
      2.44000000 -0.340326187346073E+004 -0.217169057408455E-007 
      2.46000000 -0.340326187346084E+004 -0.218236341237599E-007 
      2.48000000 -0.340326187346091E+004 -0.218940129849571E-007 
      2.50000000 -0.340326187346093E+004 -0.219172148073298E-007 
      2.52000000 -0.340326187346090E+004 -0.218824120737708E-007 
      2.54000000 -0.340326187346079E+004 -0.217780038730936E-007 
      2.56000000 -0.340326187346060E+004 -0.215900691118748E-007 
      2.58000000 -0.340326187346032E+004 -0.213062334848487E-007 
      2.60000000 -0.340326187345992E+004 -0.209114158074733E-007 
      2.62000000 -0.340326187345940E+004 -0.203889881070481E-007 
      2.64000000 -0.340326187345874E+004 -0.197242558960703E-007 
      2.66000000 -0.340326187345791E+004 -0.189005912018395E-007 
      2.68000000 -0.340326187345691E+004 -0.179009793546157E-007 
      2.70000000 -0.340326187345572E+004 -0.167114992609754E-007 
      2.72000000 -0.340326187345433E+004 -0.153147495541390E-007 
      2.74000000 -0.340326187345271E+004 -0.136975825347619E-007 
      2.76000000 -0.340326187345086E+004 -0.118487839886974E-007 
      2.78000000 -0.340326187344877E+004 -0.975713970179868E-008 
      2.80000000 -0.340326187344643E+004 -0.741452903623525E-008 
      2.82000000 -0.340326187344383E+004 -0.481785841569078E-008 
      2.84000000 -0.340326187344098E+004 -0.196287417273027E-008 
      2.86000000 -0.340326187343787E+004  0.114539663113220E-008 
      2.88000000 -0.340326187343451E+004  0.450231363142208E-008 
      2.90000000 -0.340326187343092E+004  0.809511582583440E-008 
      2.92000000 -0.340326187342710E+004  0.119094954239060E-007 
      2.94000000 -0.340326187342309E+004  0.159210905121455E-007 
      2.96000000 -0.340326187341891E+004  0.201066992681803E-007 
      2.98000000 -0.340326187341458E+004  0.244319056554907E-007 
      3.00000000 -0.340326187341015E+004  0.288588133642016E-007 
      3.02000000 -0.340326187340567E+004  0.333468192051605E-007 
      3.04000000 -0.340326187340116E+004  0.378475860484244E-007 
      3.06000000 -0.340326187339670E+004  0.423108432788524E-007 
      3.08000000 -0.340326187339233E+004  0.466789730375524E-007 
      3.10000000 -0.340326187338812E+004  0.508970643449089E-007 
      3.12000000 -0.340326187338411E+004  0.549047924627530E-007 
      3.14000000 -0.340326187338037E+004  0.586426060469947E-007 
      3.16000000 -0.340326187337696E+004  0.620513404505836E-007 
      3.18000000 -0.340326187337394E+004  0.650718310264693E-007 
      3.20000000 -0.340326187337136E+004  0.676534204624716E-007 
      3.22000000 -0.340326187336927E+004  0.697469982345680E-007 
      3.24000000 -0.340326187336770E+004  0.713111877595274E-007 
      3.26000000 -0.340326187336670E+004  0.723138931830675E-007 
      3.28000000 -0.340326187336628E+004  0.727353929561716E-007 
      3.30000000 -0.340326187336645E+004  0.725667930469299E-007 
      3.32000000 -0.340326187336720E+004  0.718119604257382E-007 
      3.34000000 -0.340326187336852E+004  0.704933235208898E-007 
      3.36000000 -0.340326187337036E+004  0.686518722185767E-007 
      3.38000000 -0.340326187337267E+004  0.663405840132164E-007 
      3.40000000 -0.340326187337537E+004  0.636402785860739E-007 
      3.42000000 -0.340326187337837E+004  0.606464701059167E-007 
      3.44000000 -0.340326187338153E+004  0.574790346550039E-007 
      3.46000000 -0.340326187338474E+004  0.542744762882947E-007 
      3.48000000 -0.340326187338782E+004  0.511940476712795E-007 
      3.50000000 -0.340326187339060E+004  0.484144693510302E-007 
      3.52000000 -0.340326187339288E+004  0.461356636969917E-007 
      3.54000000 -0.340326187339444E+004  0.445683805957160E-007 
      3.56000000 -0.340326187339507E+004  0.439427047857322E-007 
      3.58000000 -0.340326187339452E+004  0.444956815522815E-007 
      3.60000000 -0.340326187339254E+004  0.464771171829099E-007 
      3.62000000 -0.340326187338888E+004  0.501360445710844E-007 
      3.64000000 -0.340326187338328E+004  0.557292305510629E-007 
      3.66000000 -0.340326187337551E+004  0.635041612281540E-007 
      3.68000000 -0.340326187336531E+004  0.736986552816781E-007 
      3.70000000 -0.340326187335247E+004  0.865439575412829E-007 
      3.72000000 -0.340326187333677E+004  0.102244244043848E-006 
      3.74000000 -0.340326187331803E+004  0.120986676156514E-006 
      3.76000000 -0.340326187329609E+004  0.142926319392137E-006 
      3.78000000 -0.340326187327083E+004  0.168183823227056E-006 
      3.80000000 -0.340326187324217E+004  0.196841940827734E-006 
      3.82000000 -0.340326187321007E+004  0.228940115292204E-006 
      3.84000000 -0.340326187317454E+004  0.264472159467833E-006 
      3.86000000 -0.340326187313564E+004  0.303377361919413E-006 
      3.88000000 -0.340326187309347E+004  0.345543967202515E-006 
      3.90000000 -0.340326187304821E+004  0.390806082287175E-006 
      3.92000000 -0.340326187300007E+004  0.438939036193416E-006 
      3.94000000 -0.340326187294935E+004  0.489662860264609E-006 
      3.96000000 -0.340326187289637E+004  0.542641128076349E-006 
      3.98000000 -0.340326187284153E+004  0.597482502224616E-006 
      4.00000000 -0.340326187278527E+004  0.653747308175449E-006 
      4.02000000 -0.340326187272807E+004  0.710946374173822E-006 
      4.04000000 -0.340326187267046E+004  0.768551085366678E-006 
      4.06000000 -0.340326187261302E+004  0.825996477379242E-006 
      4.08000000 -0.340326187255633E+004  0.882687036770614E-006 
      4.10000000 -0.340326187250100E+004  0.938010622127194E-006 
      4.12000000 -0.340326187244767E+004  0.991343491124196E-006 
      4.14000000 -0.340326187239695E+004  0.104205842116348E-005 
      4.16000000 -0.340326187234947E+004  0.108953979055809E-005 
      4.18000000 -0.340326187230582E+004  0.113318976568488E-005 
      4.20000000 -0.340326187226657E+004  0.117244183538094E-005 
      4.22000000 -0.340326187223224E+004  0.120677086506654E-005 
      4.24000000 -0.340326187220331E+004  0.123570740453569E-005 
      4.26000000 -0.340326187218017E+004  0.125883923474423E-005 
      4.28000000 -0.340326187216318E+004  0.127583263614704E-005 
      4.30000000 -0.340326187215258E+004  0.128643393548616E-005 
      4.32000000 -0.340326187214853E+004  0.129047878651980E-005 
      4.34000000 -0.340326187215111E+004  0.128790377093347E-005 
      4.36000000 -0.340326187216027E+004  0.127874523824889E-005 
      4.38000000 -0.340326187217586E+004  0.126314974664404E-005 
      4.40000000 -0.340326187219764E+004  0.124137174277095E-005 
      4.42000000 -0.340326187222524E+004  0.121377704202902E-005 
      4.44000000 -0.340326187225817E+004  0.118083857489762E-005 
      4.46000000 -0.340326187229587E+004  0.114314102730053E-005 
      4.48000000 -0.340326187233765E+004  0.110136575942145E-005 
      4.50000000 -0.340326187238272E+004  0.105628887221873E-005 
      4.52000000 -0.340326187243024E+004  0.100877424687873E-005 
      4.54000000 -0.340326187247926E+004  0.959755370054886E-006 
      4.56000000 -0.340326187252878E+004  0.910234173776679E-006 
      4.58000000 -0.340326187257776E+004  0.861254353353834E-006 
      4.60000000 -0.340326187262512E+004  0.813896727011880E-006 
      4.62000000 -0.340326187266976E+004  0.769256807463848E-006 
      4.64000000 -0.340326187271058E+004  0.728428173937571E-006 
      4.66000000 -0.340326187274653E+004  0.692487390991143E-006 
      4.68000000 -0.340326187277654E+004  0.662471580084623E-006 
      4.70000000 -0.340326187279965E+004  0.639363338395495E-006 
      4.72000000 -0.340326187281494E+004  0.624074884240045E-006 
      4.74000000 -0.340326187282159E+004  0.617423695159872E-006 
      4.76000000 -0.340326187281889E+004  0.620123613889974E-006 
      4.78000000 -0.340326187280625E+004  0.632766286900858E-006 
      4.80000000 -0.340326187278320E+004  0.655809950184382E-006 
      4.82000000 -0.340326187274945E+004  0.689564348069223E-006 
      4.84000000 -0.340326187270483E+004  0.734185319462317E-006 
      4.86000000 -0.340326187264934E+004  0.789668610696229E-006 
      4.88000000 -0.340326187258317E+004  0.855839434709085E-006 
      4.90000000 -0.340326187250665E+004  0.932358271500165E-006 
      4.92000000 -0.340326187242030E+004  0.101871738785655E-005 
      4.94000000 -0.340326187232477E+004  0.111424277083830E-005 
      4.96000000 -0.340326187222091E+004  0.121810572868968E-005 
      4.98000000 -0.340326187210968E+004  0.132932985138584E-005 
      5.00000000 -0.340326187199221E+004  0.144680261154401E-005 
      5.02000000 -0.340326187186972E+004  0.156929083230508E-005 
      5.04000000 -0.340326187174356E+004  0.169545383503294E-005 
      5.06000000 -0.340326187161514E+004  0.182386934801616E-005 
      5.08000000 -0.340326187148597E+004  0.195304588077319E-005 
      5.10000000 -0.340326187135756E+004  0.208144824605706E-005 
      5.12000000 -0.340326187123149E+004  0.220752230846583E-005 
      5.14000000 -0.340326187110930E+004  0.232971586608276E-005 
      5.16000000 -0.340326187099251E+004  0.244650223899574E-005 
      5.18000000 -0.340326187088261E+004  0.255640501790777E-005 
      5.20000000 -0.340326187078099E+004  0.265802165265644E-005 
      5.22000000 -0.340326187068897E+004  0.275004356045992E-005 
      5.24000000 -0.340326187060773E+004  0.283127971443641E-005 
      5.26000000 -0.340326187053834E+004  0.290067404497091E-005 
      5.28000000 -0.340326187048169E+004  0.295732361447609E-005 
      5.30000000 -0.340326187043852E+004  0.300049060500049E-005 
      5.32000000 -0.340326187040939E+004  0.302961933289830E-005 
      5.34000000 -0.340326187039467E+004  0.304434088919377E-005 
      5.36000000 -0.340326187039453E+004  0.304448280700729E-005 
      5.38000000 -0.340326187040894E+004  0.303006983494937E-005 
      5.40000000 -0.340326187043769E+004  0.300132509721183E-005 
      5.42000000 -0.340326187048035E+004  0.295866661329443E-005 
      5.44000000 -0.340326187053631E+004  0.290270033745812E-005 
      5.46000000 -0.340326187060480E+004  0.283421319817839E-005 
      5.48000000 -0.340326187068486E+004  0.275415647017252E-005 
      5.50000000 -0.340326187077538E+004  0.266363301339728E-005 
      5.52000000 -0.340326187087513E+004  0.256388335195553E-005 
      5.54000000 -0.340326187098275E+004  0.245625783190938E-005 
      5.56000000 -0.340326187109681E+004  0.234220424697487E-005 
      5.58000000 -0.340326187121577E+004  0.222323960963813E-005 
      5.60000000 -0.340326187133809E+004  0.210092694933302E-005 
      5.62000000 -0.340326187146216E+004  0.197685327070982E-005 
      5.64000000 -0.340326187158641E+004  0.185260480502474E-005 
      5.66000000 -0.340326187170928E+004  0.172973684777084E-005 
      5.68000000 -0.340326187182925E+004  0.160976138437274E-005 
      5.70000000 -0.340326187194490E+004  0.149411422093826E-005 
      5.72000000 -0.340326187205487E+004  0.138413874298279E-005 
      5.74000000 -0.340326187215795E+004  0.128106503378912E-005 
      5.76000000 -0.340326187225302E+004  0.118599517991995E-005 
      5.78000000 -0.340326187233913E+004  0.109988548315407E-005 
      5.80000000 -0.340326187241548E+004  0.102353215269592E-005 
      5.82000000 -0.340326187248144E+004  0.957570918478497E-006 
      5.84000000 -0.340326187253655E+004  0.902458083008469E-006 
      5.86000000 -0.340326187258054E+004  0.858477095215822E-006 
      5.88000000 -0.340326187261328E+004  0.825732749998272E-006 
      5.90000000 -0.340326187263486E+004  0.804151188221267E-006 
      5.92000000 -0.340326187264552E+004  0.793492271023250E-006 
      5.94000000 -0.340326187264566E+004  0.793350739906776E-006 
      5.96000000 -0.340326187263584E+004  0.803171297923060E-006 
      5.98000000 -0.340326187261676E+004  0.822253250036447E-006 
      6.00000000 -0.340326187258924E+004  0.849776025129020E-006 
