# Real time calculation: 
# Eall: Total energy
# Eall0: Initial total energy
# 1:Time[fs] 2:Eall[eV] 3:Eall-Eall0[eV] 
      0.00000000 -0.691312344680098E+004  0.000000000000000E+000 
      0.02000000 -0.691312344680664E+004 -0.566743181157108E-008 
      0.04000000 -0.691312344680298E+004 -0.200618424115930E-008 
      0.06000000 -0.691312344677863E+004  0.223510888856993E-007 
      0.08000000 -0.691312344668980E+004  0.111178492445495E-006 
      0.10000000 -0.691312344644884E+004  0.352138698514915E-006 
      0.12000000 -0.691312344590524E+004  0.895735741673019E-006 
      0.14000000 -0.691312344482543E+004  0.197555164847471E-005 
      0.16000000 -0.691312344287205E+004  0.392892390154928E-005 
      0.18000000 -0.691312343958360E+004  0.721737541759364E-005 
      0.20000000 -0.691312343435457E+004  0.124464041550681E-004 
      0.22000000 -0.691312342641675E+004  0.203842255463090E-004 
      0.24000000 -0.691312341482245E+004  0.319785304004345E-004 
      0.26000000 -0.691312339843016E+004  0.483708205359945E-004 
      0.28000000 -0.691312337589301E+004  0.709079648353005E-004 
      0.30000000 -0.691312334565049E+004  0.101150485388589E-003 
      0.32000000 -0.691312330592360E+004  0.140877374965739E-003 
      0.34000000 -0.691312325471345E+004  0.192087522381563E-003 
      0.36000000 -0.691312318980327E+004  0.256997708631744E-003 
      0.38000000 -0.691312310876387E+004  0.338037103420571E-003 
      0.40000000 -0.691312300896253E+004  0.437838447695044E-003 
      0.42000000 -0.691312288757425E+004  0.559226728061977E-003 
      0.44000000 -0.691312274159536E+004  0.705205621509977E-003 
      0.46000000 -0.691312256785975E+004  0.878941228611776E-003 
      0.48000000 -0.691312236305706E+004  0.108374391500465E-002 
      0.50000000 -0.691312212375227E+004  0.132304870817069E-002 
      0.52000000 -0.691312184640639E+004  0.160039458671678E-002 
      0.54000000 -0.691312152739837E+004  0.191940260492303E-002 
      0.56000000 -0.691312116304792E+004  0.228375305286887E-002 
      0.58000000 -0.691312074963941E+004  0.269716156474314E-002 
      0.60000000 -0.691312028344601E+004  0.316335497038738E-002 
      0.62000000 -0.691311976075348E+004  0.368604749563980E-002 
      0.64000000 -0.691311917788280E+004  0.426891818000161E-002 
      0.66000000 -0.691311853121162E+004  0.491558935307976E-002 
      0.68000000 -0.691311781719414E+004  0.562960683492516E-002 
      0.70000000 -0.691311703237875E+004  0.641442222917519E-002 
      0.72000000 -0.691311617342330E+004  0.727337768100324E-002 
      0.74000000 -0.691311523710804E+004  0.820969293204856E-002 
      0.76000000 -0.691311422034560E+004  0.922645538075563E-002 
      0.78000000 -0.691311312018870E+004  0.103266122734141E-001 
      0.80000000 -0.691311193383669E+004  0.115129642904016E-001 
      0.82000000 -0.691311065863968E+004  0.127881612987036E-001 
      0.84000000 -0.691310929209987E+004  0.141547011036554E-001 
      0.86000000 -0.691310783187000E+004  0.156149309802623E-001 
      0.88000000 -0.691310627574978E+004  0.171710511944627E-001 
      0.90000000 -0.691310462168010E+004  0.188251208786033E-001 
      0.92000000 -0.691310286773404E+004  0.205790669347513E-001 
      0.94000000 -0.691310101210596E+004  0.224346950153440E-001 
      0.96000000 -0.691309905309863E+004  0.243937023514760E-001 
      0.98000000 -0.691309698910839E+004  0.264576925865978E-001 
      1.00000000 -0.691309481860915E+004  0.286281918244429E-001 
      1.02000000 -0.691309254013568E+004  0.309066652987639E-001 
      1.04000000 -0.691309015226614E+004  0.332945348381174E-001 
      1.06000000 -0.691308765360496E+004  0.357931960181980E-001 
      1.08000000 -0.691308504276630E+004  0.384040346784424E-001 
      1.10000000 -0.691308231835765E+004  0.411284433249439E-001 
      1.12000000 -0.691307947896443E+004  0.439678365503843E-001 
      1.14000000 -0.691307652313637E+004  0.469236646040059E-001 
      1.16000000 -0.691307344937442E+004  0.499974265594190E-001 
      1.18000000 -0.691307025611808E+004  0.531906828992708E-001 
      1.20000000 -0.691306694173422E+004  0.565050667565281E-001 
      1.22000000 -0.691306350450824E+004  0.599422927334899E-001 
      1.24000000 -0.691305994263779E+004  0.635041631832943E-001 
      1.26000000 -0.691305625422755E+004  0.671925734225943E-001 
      1.28000000 -0.691305243728644E+004  0.710095145358852E-001 
      1.30000000 -0.691304848972687E+004  0.749570741024945E-001 
      1.32000000 -0.691304440936558E+004  0.790374353999864E-001 
      1.34000000 -0.691304019392583E+004  0.832528751504914E-001 
      1.36000000 -0.691303584104260E+004  0.876057583760886E-001 
      1.38000000 -0.691303134826956E+004  0.920985314212446E-001 
      1.40000000 -0.691302671308764E+004  0.967337133402970E-001 
      1.42000000 -0.691302193291566E+004  0.101513885318970E+000 
      1.44000000 -0.691301700512295E+004  0.106441678023194E+000 
      1.46000000 -0.691301192704420E+004  0.111519756775463E+000 
      1.48000000 -0.691300669599599E+004  0.116750804981769E+000 
      1.50000000 -0.691300130929464E+004  0.122137506339674E+000 
      1.52000000 -0.691299576427468E+004  0.127682526291549E+000 
      1.54000000 -0.691299005830742E+004  0.133388493561330E+000 
      1.56000000 -0.691298418881920E+004  0.139257981771722E+000 
      1.58000000 -0.691297815331100E+004  0.145293489974771E+000 
      1.60000000 -0.691297194937933E+004  0.151497421644936E+000 
      1.62000000 -0.691296557473715E+004  0.157872063824519E+000 
      1.64000000 -0.691295902723387E+004  0.164419567109769E+000 
      1.66000000 -0.691295230487455E+004  0.171141926429725E+000 
      1.68000000 -0.691294540583904E+004  0.178040961937188E+000 
      1.70000000 -0.691293832850103E+004  0.185118299949978E+000 
      1.72000000 -0.691293107144609E+004  0.192375354885215E+000 
      1.74000000 -0.691292363348781E+004  0.199813313162672E+000 
      1.76000000 -0.691291601368213E+004  0.207433118843620E+000 
      1.78000000 -0.691290821134098E+004  0.215235459992796E+000 
      1.80000000 -0.691290022604260E+004  0.223220758372928E+000 
      1.82000000 -0.691289205763928E+004  0.231389161692229E+000 
      1.84000000 -0.691288370626226E+004  0.239740538720420E+000 
      1.86000000 -0.691287517232506E+004  0.248274475921366E+000 
      1.88000000 -0.691286645652435E+004  0.256990276628642E+000 
      1.90000000 -0.691285755983859E+004  0.265886962388915E+000 
      1.92000000 -0.691284848352408E+004  0.274963276893109E+000 
      1.94000000 -0.691283922911001E+004  0.284217690963249E+000 
      1.96000000 -0.691282979838963E+004  0.293648411342858E+000 
      1.98000000 -0.691282019340934E+004  0.303253391635071E+000 
      2.00000000 -0.691281041645643E+004  0.313030344545459E+000 
      2.02000000 -0.691280047004425E+004  0.322976756730427E+000 
      2.04000000 -0.691279035689500E+004  0.333089905976614E+000 
      2.06000000 -0.691278007992204E+004  0.343366878932499E+000 
      2.08000000 -0.691276964221128E+004  0.353804589693061E+000 
      2.10000000 -0.691275904700161E+004  0.364399799367424E+000 
      2.12000000 -0.691274829766470E+004  0.375149136276815E+000 
      2.14000000 -0.691273739768539E+004  0.386049115587946E+000 
      2.16000000 -0.691272635064183E+004  0.397096159144387E+000 
      2.18000000 -0.691271516018635E+004  0.408286614625081E+000 
      2.20000000 -0.691270383002653E+004  0.419616774444553E+000 
      2.22000000 -0.691269236390826E+004  0.431082892714209E+000 
      2.24000000 -0.691268076559990E+004  0.442681201079908E+000 
      2.26000000 -0.691266903887849E+004  0.454407922486823E+000 
      2.28000000 -0.691265718751683E+004  0.466259284151582E+000 
      2.30000000 -0.691264521527256E+004  0.478231528418404E+000 
      2.32000000 -0.691263312587992E+004  0.490320921059158E+000 
      2.34000000 -0.691262092304270E+004  0.502523758274132E+000 
      2.36000000 -0.691260861042952E+004  0.514836371453045E+000 
      2.38000000 -0.691259619167127E+004  0.527255129704043E+000 
      2.40000000 -0.691258367036011E+004  0.539776440862208E+000 
      2.42000000 -0.691257105005147E+004  0.552396749507349E+000 
      2.44000000 -0.691255833426770E+004  0.565112533275685E+000 
      2.46000000 -0.691254552650500E+004  0.577920295975088E+000 
      2.48000000 -0.691253263024076E+004  0.590816560218510E+000 
      2.50000000 -0.691251964894324E+004  0.603797857739538E+000 
      2.52000000 -0.691250658608413E+004  0.616860716842530E+000 
      2.54000000 -0.691249344515171E+004  0.630001649264195E+000 
      2.56000000 -0.691248022966542E+004  0.643217135556448E+000 
      2.58000000 -0.691246694319179E+004  0.656503609182330E+000 
      2.60000000 -0.691245358935939E+004  0.669857441587958E+000 
      2.62000000 -0.691244017187622E+004  0.683274924754756E+000 
      2.64000000 -0.691242669454569E+004  0.696752255291509E+000 
      2.66000000 -0.691241316128168E+004  0.710285519294401E+000 
      2.68000000 -0.691239957612321E+004  0.723870677771631E+000 
      2.70000000 -0.691238594324730E+004  0.737503553672824E+000 
      2.72000000 -0.691237226698108E+004  0.751179819895230E+000 
      2.74000000 -0.691235855181275E+004  0.764894988228057E+000 
      2.76000000 -0.691234480240111E+004  0.778644399867571E+000 
      2.78000000 -0.691233102358319E+004  0.792423217786009E+000 
      2.80000000 -0.691231722037934E+004  0.806226421638011E+000 
      2.82000000 -0.691230339799759E+004  0.820048803390170E+000 
      2.84000000 -0.691228956183370E+004  0.833884967278491E+000 
      2.86000000 -0.691227571746932E+004  0.847729331661449E+000 
      2.88000000 -0.691226187066729E+004  0.861576133682776E+000 
      2.90000000 -0.691224802736345E+004  0.875419437525127E+000 
      2.92000000 -0.691223419365670E+004  0.889253144278588E+000 
      2.94000000 -0.691222037579606E+004  0.903071004914358E+000 
      2.96000000 -0.691220658016594E+004  0.916866635037247E+000 
      2.98000000 -0.691219281326773E+004  0.930633533247592E+000 
      3.00000000 -0.691217908170114E+004  0.944365099837291E+000 
      3.02000000 -0.691216539214299E+004  0.958054657990076E+000 
      3.04000000 -0.691215175132368E+004  0.971695477299659E+000 
      3.06000000 -0.691213816600366E+004  0.985280797312618E+000 
      3.08000000 -0.691212464294856E+004  0.998803852412351E+000 
      3.10000000 -0.691211118890475E+004  0.101225789622276E+001 
      3.12000000 -0.691209781057514E+004  0.102563622583944E+001 
      3.14000000 -0.691208451459304E+004  0.103893220793330E+001 
      3.16000000 -0.691207130750032E+004  0.105213930065541E+001 
      3.18000000 -0.691205819573285E+004  0.106525106812494E+001 
      3.20000000 -0.691204518560778E+004  0.107826119319642E+001 
      3.22000000 -0.691203228331427E+004  0.109116348670717E+001 
      3.24000000 -0.691201949490455E+004  0.110395189642392E+001 
      3.26000000 -0.691200682628616E+004  0.111662051481544E+001 
      3.28000000 -0.691199428321112E+004  0.112916358985221E+001 
      3.30000000 -0.691198187125715E+004  0.114157554382386E+001 
      3.32000000 -0.691196959579257E+004  0.115385100841030E+001 
      3.34000000 -0.691195746191081E+004  0.116598489016649E+001 
      3.36000000 -0.691194547432158E+004  0.117797247940014E+001 
      3.38000000 -0.691193363717948E+004  0.118980962150091E+001 
      3.40000000 -0.691192195382985E+004  0.120149297113029E+001 
      3.42000000 -0.691191042644637E+004  0.121302035460774E+001 
      3.44000000 -0.691189905554338E+004  0.122439125759219E+001 
      3.46000000 -0.691188783934353E+004  0.123560745744376E+001 
      3.48000000 -0.691187677298995E+004  0.124667381102777E+001 
      3.50000000 -0.691186584760065E+004  0.125759920032511E+001 
      3.52000000 -0.691185504917636E+004  0.126839762461239E+001 
      3.54000000 -0.691184435738584E+004  0.127908941513533E+001 
      3.56000000 -0.691183374426940E+004  0.128970253157403E+001 
      3.58000000 -0.691182317292007E+004  0.130027388090339E+001 
      3.60000000 -0.691181259622020E+004  0.131085058077872E+001 
      3.62000000 -0.691180195572728E+004  0.132149107369574E+001 
      3.64000000 -0.691179118081658E+004  0.133226598439853E+001 
      3.66000000 -0.691178018820009E+004  0.134325860088417E+001 
      3.68000000 -0.691176888194730E+004  0.135456485367811E+001 
      3.70000000 -0.691175715413139E+004  0.136629266958382E+001 
      3.72000000 -0.691174488621626E+004  0.137856058471875E+001 
      3.74000000 -0.691173195128095E+004  0.139149552002730E+001 
      3.76000000 -0.691171821715785E+004  0.140522964313146E+001 
      3.78000000 -0.691170355051867E+004  0.141989628230889E+001 
      3.80000000 -0.691168782190372E+004  0.143562489725359E+001 
      3.82000000 -0.691167091163658E+004  0.145253516439768E+001 
      3.84000000 -0.691165271650803E+004  0.147073029294976E+001 
      3.86000000 -0.691163315704883E+004  0.149028975214529E+001 
      3.88000000 -0.691161218514646E+004  0.151126165451436E+001 
      3.90000000 -0.691158979169557E+004  0.153365510540954E+001 
      3.92000000 -0.691156601390894E+004  0.155743289203892E+001 
      3.94000000 -0.691154094186204E+004  0.158250493894041E+001 
      3.96000000 -0.691151472380187E+004  0.160872299910323E+001 
      3.98000000 -0.691148756971860E+004  0.163587708237985E+001 
      4.00000000 -0.691145975266795E+004  0.166369413302470E+001 
      4.02000000 -0.691143160733888E+004  0.169183946210118E+001 
      4.04000000 -0.691140352538992E+004  0.171992141105878E+001 
      4.06000000 -0.691137594713284E+004  0.174749966813865E+001 
      4.08000000 -0.691134934921637E+004  0.177409758460696E+001 
      4.10000000 -0.691132422807248E+004  0.179921872849963E+001 
      4.12000000 -0.691130107900718E+004  0.182236779379677E+001 
      4.14000000 -0.691128037097234E+004  0.184307582863968E+001 
      4.16000000 -0.691126251721687E+004  0.186092958410789E+001 
      4.18000000 -0.691124784219821E+004  0.187560460277119E+001 
      4.20000000 -0.691123654532185E+004  0.188690147912558E+001 
      4.22000000 -0.691122866226902E+004  0.189478453195773E+001 
      4.24000000 -0.691122402485736E+004  0.189942194361213E+001 
      4.26000000 -0.691122222055586E+004  0.190122624511856E+001 
      4.28000000 -0.691122255293384E+004  0.190089386713993E+001 
      4.30000000 -0.691122400445668E+004  0.189944234429550E+001 
      4.32000000 -0.691122520314236E+004  0.189824365861279E+001 
      4.34000000 -0.691122439466109E+004  0.189905213988674E+001 
      4.36000000 -0.691121942147876E+004  0.190402532221553E+001 
      4.38000000 -0.691120771062311E+004  0.191573617787060E+001 
      4.40000000 -0.691118627157077E+004  0.193717523020309E+001 
      4.42000000 -0.691115170562208E+004  0.197174117889569E+001 
      4.44000000 -0.691110022793747E+004  0.202321886350597E+001 
      4.46000000 -0.691102770316144E+004  0.209574363953286E+001 
      4.48000000 -0.691092969524993E+004  0.219375155104842E+001 
      4.50000000 -0.691080153174664E+004  0.232191505434203E+001 
      4.52000000 -0.691063838233260E+004  0.248506446837970E+001 
      4.54000000 -0.691043535099373E+004  0.268809580724601E+001 
      4.56000000 -0.691018758063382E+004  0.293586616715723E+001 
      4.58000000 -0.690989036840249E+004  0.323307839848456E+001 
      4.60000000 -0.690953928942709E+004  0.358415737388709E+001 
      4.62000000 -0.690913032606500E+004  0.399312073597480E+001 
      4.64000000 -0.690865999922879E+004  0.446344757219117E+001 
      4.66000000 -0.690812549782619E+004  0.499794897478195E+001 
      4.68000000 -0.690752480192991E+004  0.559864487106498E+001 
      4.70000000 -0.690685679497935E+004  0.626665182162519E+001 
      4.72000000 -0.690612136016376E+004  0.700208663721907E+001 
      4.74000000 -0.690531945618008E+004  0.780399062089343E+001 
      4.76000000 -0.690445316784473E+004  0.867027895624547E+001 
      4.78000000 -0.690352572757545E+004  0.959771922552445E+001 
      4.80000000 -0.690254150460168E+004  0.105819421992935E+002 
      4.82000000 -0.690150595988863E+004  0.116174869123460E+002 
      4.84000000 -0.690042556615991E+004  0.126978806410668E+002 
      4.86000000 -0.689930769404251E+004  0.138157527584632E+002 
      4.88000000 -0.689816046716297E+004  0.149629796380037E+002 
      4.90000000 -0.689699259088368E+004  0.161308559172931E+002 
      4.92000000 -0.689581316116749E+004  0.173102856334860E+002 
      4.94000000 -0.689463146161362E+004  0.184919851873545E+002 
      4.96000000 -0.689345675789629E+004  0.196666889046879E+002 
      4.98000000 -0.689229809943808E+004  0.208253473629011E+002 
      5.00000000 -0.689116413804471E+004  0.219593087562624E+002 
      5.02000000 -0.689006297230311E+004  0.230604744978628E+002 
      5.04000000 -0.688900202474821E+004  0.241214220527653E+002 
      5.06000000 -0.688798795619302E+004  0.251354906079586E+002 
      5.08000000 -0.688702661830528E+004  0.260968284956958E+002 
      5.10000000 -0.688612304177143E+004  0.270004050295463E+002 
      5.12000000 -0.688528145355743E+004  0.278419932435460E+002 
      5.14000000 -0.688450531321000E+004  0.286181335909752E+002 
      5.16000000 -0.688379735535945E+004  0.293260914415290E+002 
      5.18000000 -0.688315962393850E+004  0.299638228624734E+002 
      5.20000000 -0.688259348349615E+004  0.305299633048219E+002 
      5.22000000 -0.688209959453348E+004  0.310238522674982E+002 
      5.24000000 -0.688167784307604E+004  0.314456037249342E+002 
      5.26000000 -0.688132721948938E+004  0.317962273115944E+002 
      5.28000000 -0.688104564746810E+004  0.320777993328793E+002 
      5.30000000 -0.688082977060181E+004  0.322936761991688E+002 
      5.32000000 -0.688067471024959E+004  0.324487365513896E+002 
      5.34000000 -0.688057381392932E+004  0.325496328716602E+002 
      5.36000000 -0.688051841741090E+004  0.326050293900723E+002 
      5.38000000 -0.688049764569153E+004  0.326258011094458E+002 
      5.40000000 -0.688049827778405E+004  0.326251690169228E+002 
      5.42000000 -0.688050469775894E+004  0.326187490420351E+002 
      5.44000000 -0.688049895000583E+004  0.326244967951458E+002 
      5.46000000 -0.688046091066213E+004  0.326625361388509E+002 
      5.48000000 -0.688036858018278E+004  0.327548666181974E+002 
      5.50000000 -0.688019849470090E+004  0.329249521000746E+002 
      5.52000000 -0.687992624670445E+004  0.331972000965306E+002 
      5.54000000 -0.687952709907638E+004  0.335963477245997E+002 
      5.56000000 -0.687897667099679E+004  0.341467758041825E+002 
      5.58000000 -0.687825166971942E+004  0.348717770815604E+002 
      5.60000000 -0.687733063885169E+004  0.357928079492889E+002 
      5.62000000 -0.687619469139999E+004  0.369287554009902E+002 
      5.64000000 -0.687482819445222E+004  0.382952523487608E+002 
      5.66000000 -0.687321937187728E+004  0.399040749236990E+002 
      5.68000000 -0.687136079189744E+004  0.417626549035413E+002 
      5.70000000 -0.686924970791762E+004  0.438737388833528E+002 
      5.72000000 -0.686688822384505E+004  0.462352229559311E+002 
      5.74000000 -0.686428325960487E+004  0.488401871961052E+002 
      5.76000000 -0.686144629905408E+004  0.516771477469006E+002 
      5.78000000 -0.685839291136100E+004  0.547305354399725E+002 
      5.80000000 -0.685514204845558E+004  0.579813983454012E+002 
      5.82000000 -0.685171513540831E+004  0.614083113926644E+002 
      5.84000000 -0.684813498724032E+004  0.649884595606593E+002 
      5.86000000 -0.684442460401364E+004  0.686988427873398E+002 
      5.88000000 -0.684060591481143E+004  0.725175319895430E+002 
      5.90000000 -0.683669855854647E+004  0.764248882545030E+002 
      5.92000000 -0.683271880322008E+004  0.804046435808941E+002 
      5.94000000 -0.682867871262584E+004  0.844447341751342E+002 
      5.96000000 -0.682458566785521E+004  0.885377789457641E+002 
      5.98000000 -0.682044233792314E+004  0.926811088778376E+002 
      6.00000000 -0.681624716744731E+004  0.968762793536661E+002 
