# Real time calculation: 
# Eall: Total energy
# Eall0: Initial total energy
# 1:Time[fs] 2:Eall[eV] 3:Eall-Eall0[eV] 
      0.00000000 -0.691386920126036E+004  0.000000000000000E+000 
      0.02000000 -0.691386920128869E+004 -0.283301985111436E-007 
      0.04000000 -0.691386920128830E+004 -0.279450482597568E-007 
      0.06000000 -0.691386920128405E+004 -0.236960211892367E-007 
      0.08000000 -0.691386920126797E+004 -0.761174452640319E-008 
      0.10000000 -0.691386920122402E+004  0.363348272297245E-007 
      0.12000000 -0.691386920112465E+004  0.135709779240149E-006 
      0.14000000 -0.691386920092708E+004  0.333274843531832E-006 
      0.16000000 -0.691386920056955E+004  0.690804872172083E-006 
      0.18000000 -0.691386919996754E+004  0.129281250315345E-005 
      0.20000000 -0.691386919901018E+004  0.225017537862468E-005 
      0.22000000 -0.691386919755679E+004  0.370356846781365E-005 
      0.24000000 -0.691386919543385E+004  0.582650350575830E-005 
      0.26000000 -0.691386919243239E+004  0.882796626711621E-005 
      0.28000000 -0.691386918830587E+004  0.129544830751440E-004 
      0.30000000 -0.691386918276874E+004  0.184916211862108E-004 
      0.32000000 -0.691386917549554E+004  0.257648140012805E-004 
      0.34000000 -0.691386916612076E+004  0.351396008180765E-004 
      0.36000000 -0.691386915423919E+004  0.470211682083925E-004 
      0.38000000 -0.691386913940708E+004  0.618532750003227E-004 
      0.40000000 -0.691386912114378E+004  0.801165817470513E-004 
      0.42000000 -0.691386909893388E+004  0.102326474395913E-003 
      0.44000000 -0.691386907222986E+004  0.129030501260417E-003 
      0.46000000 -0.691386904045507E+004  0.160805288724656E-003 
      0.48000000 -0.691386900300725E+004  0.198253102733234E-003 
      0.50000000 -0.691386895926218E+004  0.241998179036360E-003 
      0.52000000 -0.691386890857755E+004  0.292682802855260E-003 
      0.54000000 -0.691386885029716E+004  0.350963192878890E-003 
      0.56000000 -0.691386878375515E+004  0.417505210473581E-003 
      0.58000000 -0.691386870828048E+004  0.492979878637753E-003 
      0.60000000 -0.691386862320152E+004  0.578058835991508E-003 
      0.62000000 -0.691386852785048E+004  0.673409877386377E-003 
      0.64000000 -0.691386842156762E+004  0.779692738907588E-003 
      0.66000000 -0.691386830370527E+004  0.897555087052370E-003 
      0.68000000 -0.691386817363156E+004  0.102762879715764E-002 
      0.70000000 -0.691386803073366E+004  0.117052669586416E-002 
      0.72000000 -0.691386787442062E+004  0.132683973668133E-002 
      0.74000000 -0.691386770412575E+004  0.149713460865273E-002 
      0.76000000 -0.691386751930838E+004  0.168195197611117E-002 
      0.78000000 -0.691386731945531E+004  0.188180505099322E-002 
      0.80000000 -0.691386710408184E+004  0.209717852246183E-002 
      0.82000000 -0.691386687273255E+004  0.232852781135441E-002 
      0.84000000 -0.691386662498141E+004  0.257627894489300E-002 
      0.86000000 -0.691386636043140E+004  0.284082895884920E-002 
      0.88000000 -0.691386607871373E+004  0.312254662840155E-002 
      0.90000000 -0.691386577948664E+004  0.342177371252665E-002 
      0.92000000 -0.691386546243368E+004  0.373882667712109E-002 
      0.94000000 -0.691386512726150E+004  0.407399886050497E-002 
      0.96000000 -0.691386477369740E+004  0.442756296065717E-002 
      0.98000000 -0.691386440148647E+004  0.479977389213313E-002 
      1.00000000 -0.691386401038852E+004  0.519087183633108E-002 
      1.02000000 -0.691386360017495E+004  0.560108540931420E-002 
      1.04000000 -0.691386317062548E+004  0.603063487835658E-002 
      1.06000000 -0.691386272152494E+004  0.647973541870568E-002 
      1.08000000 -0.691386225266023E+004  0.694860012363212E-002 
      1.10000000 -0.691386176381728E+004  0.743744307480415E-002 
      1.12000000 -0.691386125477824E+004  0.794648211567881E-002 
      1.14000000 -0.691386072531895E+004  0.847594141143634E-002 
      1.16000000 -0.691386017520661E+004  0.902605375214777E-002 
      1.18000000 -0.691385960419744E+004  0.959706291626719E-002 
      1.20000000 -0.691385901203470E+004  0.101892256598013E-001 
      1.22000000 -0.691385839844714E+004  0.108028132174675E-001 
      1.24000000 -0.691385776314784E+004  0.114381125146021E-001 
      1.26000000 -0.691385710583345E+004  0.120954269088454E-001 
      1.28000000 -0.691385642618372E+004  0.127750766394838E-001 
      1.30000000 -0.691385572386151E+004  0.134773988491047E-001 
      1.32000000 -0.691385499851308E+004  0.142027472726919E-001 
      1.34000000 -0.691385424976876E+004  0.149514915933885E-001 
      1.36000000 -0.691385347724402E+004  0.157240163357703E-001 
      1.38000000 -0.691385268054094E+004  0.165207194126376E-001 
      1.40000000 -0.691385185925003E+004  0.173420103284215E-001 
      1.42000000 -0.691385101295229E+004  0.181883080693642E-001 
      1.44000000 -0.691385014122180E+004  0.190600385613731E-001 
      1.46000000 -0.691384924362862E+004  0.199576317342169E-001 
      1.48000000 -0.691384831974205E+004  0.208815183049793E-001 
      1.50000000 -0.691384736913402E+004  0.218321263380023E-001 
      1.52000000 -0.691384639138275E+004  0.228098776068405E-001 
      1.54000000 -0.691384538607626E+004  0.238151840992933E-001 
      1.56000000 -0.691384435281597E+004  0.248484443839993E-001 
      1.58000000 -0.691384329122050E+004  0.259100398610220E-001 
      1.60000000 -0.691384220092957E+004  0.270003307881509E-001 
      1.62000000 -0.691384108160809E+004  0.281196522654397E-001 
      1.64000000 -0.691383993294997E+004  0.292683103829300E-001 
      1.66000000 -0.691383875468190E+004  0.304465784549958E-001 
      1.68000000 -0.691383754656689E+004  0.316546934696910E-001 
      1.70000000 -0.691383630840791E+004  0.328928524437437E-001 
      1.72000000 -0.691383504005132E+004  0.341612090350895E-001 
      1.74000000 -0.691383374138981E+004  0.354598705482898E-001 
      1.76000000 -0.691383241236530E+004  0.367888950567327E-001 
      1.78000000 -0.691383105297141E+004  0.381482889494266E-001 
      1.80000000 -0.691382966325561E+004  0.395380047469357E-001 
      1.82000000 -0.691382824332056E+004  0.409579397951170E-001 
      1.84000000 -0.691382679332530E+004  0.424079350532121E-001 
      1.86000000 -0.691382531348573E+004  0.438877746305840E-001 
      1.88000000 -0.691382380407495E+004  0.453971854038871E-001 
      1.90000000 -0.691382226542312E+004  0.469358372382578E-001 
      1.92000000 -0.691382069791705E+004  0.485033433090466E-001 
      1.94000000 -0.691381910199919E+004  0.500992611636879E-001 
      1.96000000 -0.691381747816638E+004  0.517230939815593E-001 
      1.98000000 -0.691381582696794E+004  0.533742924146593E-001 
      2.00000000 -0.691381414900374E+004  0.550522566169932E-001 
      2.02000000 -0.691381244492153E+004  0.567563388308035E-001 
      2.04000000 -0.691381071541419E+004  0.584858461630538E-001 
      2.06000000 -0.691380896121666E+004  0.602400437022078E-001 
      2.08000000 -0.691380718310250E+004  0.620181578531038E-001 
      2.10000000 -0.691380538188063E+004  0.638193797290617E-001 
      2.12000000 -0.691380355839171E+004  0.656428686507175E-001 
      2.14000000 -0.691380171350448E+004  0.674877558776499E-001 
      2.16000000 -0.691379984811211E+004  0.693531482456524E-001 
      2.18000000 -0.691379796312846E+004  0.712381318937199E-001 
      2.20000000 -0.691379605948467E+004  0.731417756878636E-001 
      2.22000000 -0.691379413812564E+004  0.750631347222665E-001 
      2.24000000 -0.691379220000689E+004  0.770012534693173E-001 
      2.26000000 -0.691379024609159E+004  0.789551687649115E-001 
      2.28000000 -0.691378827734770E+004  0.809239126622756E-001 
      2.30000000 -0.691378629474549E+004  0.829065148697054E-001 
      2.32000000 -0.691378429925512E+004  0.849020052408947E-001 
      2.34000000 -0.691378229184475E+004  0.869094156086527E-001 
      2.36000000 -0.691378027347873E+004  0.889277816232618E-001 
      2.38000000 -0.691377824511619E+004  0.909561441646952E-001 
      2.40000000 -0.691377620771000E+004  0.929935503580833E-001 
      2.42000000 -0.691377416220611E+004  0.950390542473399E-001 
      2.44000000 -0.691377210954325E+004  0.970917171060666E-001 
      2.46000000 -0.691377005065313E+004  0.991506072318302E-001 
      2.48000000 -0.691376798646083E+004  0.101214799523116E+000 
      2.50000000 -0.691376591788567E+004  0.103283374690465E+000 
      2.52000000 -0.691376384584227E+004  0.105355418089424E+000 
      2.54000000 -0.691376177124209E+004  0.107430018263470E+000 
      2.56000000 -0.691375969499511E+004  0.109506265248731E+000 
      2.58000000 -0.691375761801161E+004  0.111583248746454E+000 
      2.60000000 -0.691375554120422E+004  0.113660056136157E+000 
      2.62000000 -0.691375346549010E+004  0.115735770254444E+000 
      2.64000000 -0.691375139179300E+004  0.117809467362520E+000 
      2.66000000 -0.691374932104542E+004  0.119880214934286E+000 
      2.68000000 -0.691374725419061E+004  0.121947069750698E+000 
      2.70000000 -0.691374519218455E+004  0.124009075810054E+000 
      2.72000000 -0.691374313599782E+004  0.126065262540681E+000 
      2.74000000 -0.691374108661751E+004  0.128114642846568E+000 
      2.76000000 -0.691373904504886E+004  0.130156211498707E+000 
      2.78000000 -0.691373701231676E+004  0.132188943599131E+000 
      2.80000000 -0.691373498946699E+004  0.134211793372875E+000 
      2.82000000 -0.691373297756715E+004  0.136223693206642E+000 
      2.84000000 -0.691373097770741E+004  0.138223552948887E+000 
      2.86000000 -0.691372899100075E+004  0.140210259603551E+000 
      2.88000000 -0.691372701858326E+004  0.142182677095723E+000 
      2.90000000 -0.691372506161377E+004  0.144139646584860E+000 
      2.92000000 -0.691372312127345E+004  0.146079986908723E+000 
      2.94000000 -0.691372119876472E+004  0.148002495635961E+000 
      2.96000000 -0.691371929531018E+004  0.149905950180574E+000 
      2.98000000 -0.691371741215080E+004  0.151789109553648E+000 
      3.00000000 -0.691371555054420E+004  0.153650716159180E+000 
      3.02000000 -0.691371371176227E+004  0.155489498085642E+000 
      3.04000000 -0.691371189708874E+004  0.157304171621832E+000 
      3.06000000 -0.691371010781596E+004  0.159093444394535E+000 
      3.08000000 -0.691370834524195E+004  0.160856018409508E+000 
      3.10000000 -0.691370661066680E+004  0.162590593555726E+000 
      3.12000000 -0.691370490538898E+004  0.164295871374138E+000 
      3.14000000 -0.691370323069957E+004  0.165970560786189E+000 
      3.16000000 -0.691370158787878E+004  0.167613381574099E+000 
      3.18000000 -0.691369997819627E+004  0.169223064086970E+000 
      3.20000000 -0.691369840291171E+004  0.170798348646822E+000 
      3.22000000 -0.691369686327503E+004  0.172337985325853E+000 
      3.24000000 -0.691369536052611E+004  0.173840734245745E+000 
      3.26000000 -0.691369389589179E+004  0.175305368564509E+000 
      3.28000000 -0.691369247057768E+004  0.176730682679880E+000 
      3.30000000 -0.691369108574860E+004  0.178115511759058E+000 
      3.32000000 -0.691368974248936E+004  0.179458770998519E+000 
      3.34000000 -0.691368844173370E+004  0.180759526655616E+000 
      3.36000000 -0.691368718414620E+004  0.182017114162097E+000 
      3.38000000 -0.691368596993807E+004  0.183231322283158E+000 
      3.40000000 -0.691368479859655E+004  0.184402663804596E+000 
      3.42000000 -0.691368366850553E+004  0.185532754829238E+000 
      3.44000000 -0.691368257643770E+004  0.186624822660973E+000 
      3.46000000 -0.691368151690096E+004  0.187684359401627E+000 
      3.48000000 -0.691368048132891E+004  0.188719931452496E+000 
      3.50000000 -0.691367945711464E+004  0.189744145717888E+000 
      3.52000000 -0.691367842649898E+004  0.190774761377674E+000 
      3.54000000 -0.691367736533887E+004  0.191835921483327E+000 
      3.56000000 -0.691367624179909E+004  0.192959461270794E+000 
      3.58000000 -0.691367501502757E+004  0.194186232788879E+000 
      3.60000000 -0.691367363389304E+004  0.195567367318138E+000 
      3.62000000 -0.691367203588074E+004  0.197165379621393E+000 
      3.64000000 -0.691367014625540E+004  0.199055004954892E+000 
      3.66000000 -0.691366787761304E+004  0.201323647315141E+000 
      3.68000000 -0.691366512994640E+004  0.204071313961814E+000 
      3.70000000 -0.691366179134900E+004  0.207409911357682E+000 
      3.72000000 -0.691365773947257E+004  0.211461787791768E+000 
      3.74000000 -0.691365284383568E+004  0.216357424679694E+000 
      3.76000000 -0.691364696905506E+004  0.222232205293055E+000 
      3.78000000 -0.691363997903374E+004  0.229222226622436E+000 
      3.80000000 -0.691363174209685E+004  0.237459163510184E+000 
      3.82000000 -0.691362213701224E+004  0.247064248120884E+000 
      3.84000000 -0.691361105977295E+004  0.258141487409856E+000 
      3.86000000 -0.691359843095542E+004  0.270770304938203E+000 
      3.88000000 -0.691358420339938E+004  0.284997860972923E+000 
      3.90000000 -0.691356836989081E+004  0.300831369550694E+000 
      3.92000000 -0.691355097046528E+004  0.318230795079369E+000 
      3.94000000 -0.691353209889676E+004  0.337102363600334E+000 
      3.96000000 -0.691351190789147E+004  0.357293368884998E+000 
      3.98000000 -0.691349061247874E+004  0.378588781616844E+000 
      4.00000000 -0.691346849107886E+004  0.400710181495843E+000 
      4.02000000 -0.691344588373763E+004  0.423317522726217E+000 
      4.04000000 -0.691342318705005E+004  0.446014210306030E+000 
      4.06000000 -0.691340084535159E+004  0.468355908772298E+000 
      4.08000000 -0.691337933783945E+004  0.489863420912320E+000 
      4.10000000 -0.691335916139263E+004  0.510039867732485E+000 
      4.12000000 -0.691334080899217E+004  0.528392268184010E+000 
      4.14000000 -0.691332474379551E+004  0.544457464852964E+000 
      4.16000000 -0.691331136909089E+004  0.557832169465640E+000 
      4.18000000 -0.691330099454289E+004  0.568206717468190E+000 
      4.20000000 -0.691329379933195E+004  0.575401928412249E+000 
      4.22000000 -0.691328979298797E+004  0.579408272382842E+000 
      4.24000000 -0.691328877490542E+004  0.580426354941770E+000 
      4.26000000 -0.691329029370704E+004  0.578907553315162E+000 
      4.28000000 -0.691329360778038E+004  0.575593479981814E+000 
      4.30000000 -0.691329764844306E+004  0.571552817299385E+000 
      4.32000000 -0.691330098729172E+004  0.568213968636288E+000 
      4.34000000 -0.691330180934748E+004  0.567391912875523E+000 
      4.36000000 -0.691329789362541E+004  0.571307634950970E+000 
      4.38000000 -0.691328660271969E+004  0.582598540667493E+000 
      4.40000000 -0.691326488290639E+004  0.604318353971004E+000 
      4.42000000 -0.691322927611979E+004  0.639925140568377E+000 
      4.44000000 -0.691317594495335E+004  0.693256307004826E+000 
      4.46000000 -0.691310071157128E+004  0.768489689081732E+000 
      4.48000000 -0.691299911109146E+004  0.870090168897226E+000 
      4.50000000 -0.691286645961707E+004  0.100274164329094E+001 
      4.52000000 -0.691269793665381E+004  0.117126460654479E+001 
      4.54000000 -0.691248868115904E+004  0.138052010132174E+001 
      4.56000000 -0.691223389993211E+004  0.163530132824739E+001 
      4.58000000 -0.691192898648715E+004  0.194021477320754E+001 
      4.60000000 -0.691156964795896E+004  0.229955330140148E+001 
      4.62000000 -0.691115203699938E+004  0.271716426097479E+001 
      4.64000000 -0.691067288505544E+004  0.319631620491487E+001 
      4.66000000 -0.691012963289475E+004  0.373956836560674E+001 
      4.68000000 -0.690952055381247E+004  0.434864744788403E+001 
      4.70000000 -0.690884486463337E+004  0.502433662698482E+001 
      4.72000000 -0.690810281947670E+004  0.576638178366111E+001 
      4.74000000 -0.690729578129652E+004  0.657341996383435E+001 
      4.76000000 -0.690642626651523E+004  0.744293474512603E+001 
      4.78000000 -0.690549795863829E+004  0.837124262206776E+001 
      4.80000000 -0.690451568763247E+004  0.935351362788404E+001 
      4.82000000 -0.690348537303510E+004  0.103838282252533E+002 
      4.84000000 -0.690241393027187E+004  0.114552709884846E+002 
      4.86000000 -0.690130914141051E+004  0.125600598498525E+002 
      4.88000000 -0.690017949353232E+004  0.136897077280423E+002 
      4.90000000 -0.689903398993332E+004  0.148352113270358E+002 
      4.92000000 -0.689788194134511E+004  0.159872599152432E+002 
      4.94000000 -0.689673274611626E+004  0.171364551440931E+002 
      4.96000000 -0.689559566963809E+004  0.182735316222653E+002 
      4.98000000 -0.689447963403123E+004  0.193895672291233E+002 
      5.00000000 -0.689339302906230E+004  0.204761721980581E+002 
      5.02000000 -0.689234355428673E+004  0.215256469736326E+002 
      5.04000000 -0.689133810046096E+004  0.225311007993945E+002 
      5.06000000 -0.689038267532717E+004  0.234865259331838E+002 
      5.08000000 -0.688948237512458E+004  0.243868261357737E+002 
      5.10000000 -0.688864139883910E+004  0.252278024212557E+002 
      5.12000000 -0.688786309767419E+004  0.260061035861705E+002 
      5.14000000 -0.688715004796546E+004  0.267191532948996E+002 
      5.16000000 -0.688650413229471E+004  0.273650689656460E+002 
      5.18000000 -0.688592661139854E+004  0.279425898618159E+002 
      5.20000000 -0.688541816904078E+004  0.284510322195792E+002 
      5.22000000 -0.688497891361377E+004  0.288902876465835E+002 
      5.24000000 -0.688460832390502E+004  0.292608773553360E+002 
      5.26000000 -0.688430513203442E+004  0.295640692259377E+002 
      5.28000000 -0.688406714357054E+004  0.298020576898228E+002 
      5.30000000 -0.688389100261693E+004  0.299781986434292E+002 
      5.32000000 -0.688377191736138E+004  0.300972838989786E+002 
      5.34000000 -0.688370336835442E+004  0.301658329059416E+002 
      5.36000000 -0.688367682678575E+004  0.301923744746072E+002 
      5.38000000 -0.688368151264241E+004  0.301876886179514E+002 
      5.40000000 -0.688370422248826E+004  0.301649787721015E+002 
      5.42000000 -0.688372925366527E+004  0.301399475950910E+002 
      5.44000000 -0.688373844626082E+004  0.301307549995365E+002 
      5.46000000 -0.688371135677374E+004  0.301578444866217E+002 
      5.48000000 -0.688362556878192E+004  0.302436324784406E+002 
      5.50000000 -0.688345713688718E+004  0.304120643731735E+002 
      5.52000000 -0.688318115155796E+004  0.306880497023932E+002 
      5.54000000 -0.688277240484279E+004  0.310967964175689E+002 
      5.56000000 -0.688220613071467E+004  0.316630705456857E+002 
      5.58000000 -0.688145878922297E+004  0.324104120373827E+002 
      5.60000000 -0.688050886067134E+004  0.333603405890175E+002 
      5.62000000 -0.687933761453174E+004  0.345315867286224E+002 
      5.64000000 -0.687792981751830E+004  0.359393837420574E+002 
      5.66000000 -0.687627434592939E+004  0.375948553309708E+002 
      5.68000000 -0.687436466890076E+004  0.395045323595954E+002 
      5.70000000 -0.687219917156849E+004  0.416700296918674E+002 
      5.72000000 -0.686978129051844E+004  0.440879107419226E+002 
      5.74000000 -0.686711943861817E+004  0.467497626421880E+002 
      5.76000000 -0.686422670286300E+004  0.496424983973569E+002 
      5.78000000 -0.686112030770086E+004  0.527488935594966E+002 
      5.80000000 -0.685782084783982E+004  0.560483534205397E+002 
      5.82000000 -0.685435130897220E+004  0.595178922881607E+002 
      5.84000000 -0.685073591190747E+004  0.631332893528850E+002 
      5.86000000 -0.684699883463265E+004  0.668703666277028E+002 
      5.88000000 -0.684316288638195E+004  0.707063148784101E+002 
      5.90000000 -0.683924822602780E+004  0.746209752325532E+002 
      5.92000000 -0.683527123149368E+004  0.785979697666756E+002 
      5.94000000 -0.683124363460905E+004  0.826255666513090E+002 
      5.96000000 -0.682717203408105E+004  0.866971671793084E+002 
      5.98000000 -0.682305788538366E+004  0.908113158766983E+002 
      6.00000000 -0.681889803863090E+004  0.949711626294608E+002 
