# Real time calculation: 
# Eall: Total energy
# Eall0: Initial total energy
# 1:Time[fs] 2:Eall[eV] 3:Eall-Eall0[eV] 
      0.00000000 -0.691377045958513E+004  0.000000000000000E+000 
      0.02000000 -0.691377045963459E+004 -0.494570045696435E-007 
      0.04000000 -0.691377045963527E+004 -0.501337243888472E-007 
      0.06000000 -0.691377045963548E+004 -0.503479545487551E-007 
      0.08000000 -0.691377045963492E+004 -0.497918842058894E-007 
      0.10000000 -0.691377045963275E+004 -0.476194202377258E-007 
      0.12000000 -0.691377045962744E+004 -0.423123900670106E-007 
      0.14000000 -0.691377045961663E+004 -0.314941536887005E-007 
      0.16000000 -0.691377045959685E+004 -0.117200138745289E-007 
      0.18000000 -0.691377045956340E+004  0.217346938046646E-007 
      0.20000000 -0.691377045951007E+004  0.750625357401532E-007 
      0.22000000 -0.691377045942900E+004  0.156130476504440E-006 
      0.24000000 -0.691377045931049E+004  0.274639198031549E-006 
      0.26000000 -0.691377045914287E+004  0.442266950915740E-006 
      0.28000000 -0.691377045891233E+004  0.672804124981265E-006 
      0.30000000 -0.691377045860292E+004  0.982215120808698E-006 
      0.32000000 -0.691377045819643E+004  0.138869790107903E-005 
      0.34000000 -0.691377045767243E+004  0.191270177863746E-005 
      0.36000000 -0.691377045700825E+004  0.257688255963688E-005 
      0.38000000 -0.691377045617906E+004  0.340607238116868E-005 
      0.40000000 -0.691377045515798E+004  0.442715364802796E-005 
      0.42000000 -0.691377045391615E+004  0.566898014651742E-005 
      0.44000000 -0.691377045242294E+004  0.716218756289794E-005 
      0.46000000 -0.691377045064607E+004  0.893906432657747E-005 
      0.48000000 -0.691377044855180E+004  0.110333311927984E-004 
      0.50000000 -0.691377044610517E+004  0.134799587216350E-004 
      0.52000000 -0.691377044327020E+004  0.163149298460109E-004 
      0.54000000 -0.691377044001011E+004  0.195750240947513E-004 
      0.56000000 -0.691377043628756E+004  0.232975770670244E-004 
      0.58000000 -0.691377043206491E+004  0.275202221187186E-004 
      0.60000000 -0.691377042730448E+004  0.322806521570666E-004 
      0.62000000 -0.691377042196878E+004  0.376163566866581E-004 
      0.64000000 -0.691377041602074E+004  0.435643944315809E-004 
      0.66000000 -0.691377040942397E+004  0.501611644107733E-004 
      0.68000000 -0.691377040214293E+004  0.574421978950168E-004 
      0.70000000 -0.691377039414315E+004  0.654419789795099E-004 
      0.72000000 -0.691377038539134E+004  0.741937922252345E-004 
      0.74000000 -0.691377037585557E+004  0.837295648865634E-004 
      0.76000000 -0.691377036550535E+004  0.940797864782767E-004 
      0.78000000 -0.691377035431170E+004  0.105273428342577E-003 
      0.80000000 -0.691377034224727E+004  0.117337864762894E-003 
      0.82000000 -0.691377032928629E+004  0.130298846668484E-003 
      0.84000000 -0.691377031540466E+004  0.144180473792247E-003 
      0.86000000 -0.691377030057990E+004  0.159005230246850E-003 
      0.88000000 -0.691377028479114E+004  0.174793989938487E-003 
      0.90000000 -0.691377026801901E+004  0.191566123295263E-003 
      0.92000000 -0.691377025024558E+004  0.209339553724961E-003 
      0.94000000 -0.691377023145424E+004  0.228130896052582E-003 
      0.96000000 -0.691377021162955E+004  0.247955584130369E-003 
      0.98000000 -0.691377019075711E+004  0.268828019329468E-003 
      1.00000000 -0.691377016882339E+004  0.290761739139840E-003 
      1.02000000 -0.691377014581551E+004  0.313769621346295E-003 
      1.04000000 -0.691377012172110E+004  0.337864030973370E-003 
      1.06000000 -0.691377009652813E+004  0.363056998939360E-003 
      1.08000000 -0.691377007022472E+004  0.389360410764471E-003 
      1.10000000 -0.691377004279897E+004  0.416786163569823E-003 
      1.12000000 -0.691377001423881E+004  0.445346323076443E-003 
      1.14000000 -0.691376998453188E+004  0.475053252762080E-003 
      1.16000000 -0.691376995366537E+004  0.505919764673048E-003 
      1.18000000 -0.691376992162590E+004  0.537959236980127E-003 
      1.20000000 -0.691376988839941E+004  0.571185719160157E-003 
      1.22000000 -0.691376985397111E+004  0.605614021709754E-003 
      1.24000000 -0.691376981832536E+004  0.641259771829679E-003 
      1.26000000 -0.691376978144566E+004  0.678139472202792E-003 
      1.28000000 -0.691376974331462E+004  0.716270512594961E-003 
      1.30000000 -0.691376970391396E+004  0.755671168308276E-003 
      1.32000000 -0.691376966322456E+004  0.796360569245282E-003 
      1.34000000 -0.691376962122646E+004  0.838358672840191E-003 
      1.36000000 -0.691376957789894E+004  0.881686188266257E-003 
      1.38000000 -0.691376953322065E+004  0.926364485948676E-003 
      1.40000000 -0.691376948716964E+004  0.972415496249953E-003 
      1.42000000 -0.691376943972354E+004  0.101986158882043E-002 
      1.44000000 -0.691376939085972E+004  0.106872541250572E-002 
      1.46000000 -0.691376934055542E+004  0.111902970973210E-002 
      1.48000000 -0.691376928878797E+004  0.117079716337453E-002 
      1.50000000 -0.691376923553495E+004  0.122405018252644E-002 
      1.52000000 -0.691376918077444E+004  0.127881069677695E-002 
      1.54000000 -0.691376912448517E+004  0.133509995822196E-002 
      1.56000000 -0.691376906664680E+004  0.139293833187436E-002 
      1.58000000 -0.691376900724005E+004  0.145234508066047E-002 
      1.60000000 -0.691376894624697E+004  0.151333816356420E-002 
      1.62000000 -0.691376888365115E+004  0.157593398736756E-002 
      1.64000000 -0.691376881943794E+004  0.164014719396724E-002 
      1.66000000 -0.691376875359469E+004  0.170599044614451E-002 
      1.68000000 -0.691376868611090E+004  0.177347423421664E-002 
      1.70000000 -0.691376861697846E+004  0.184260667263432E-002 
      1.72000000 -0.691376854619182E+004  0.191339331204686E-002 
      1.74000000 -0.691376847374819E+004  0.198583694672706E-002 
      1.76000000 -0.691376839964766E+004  0.205993747071993E-002 
      1.78000000 -0.691376832389337E+004  0.213569176183358E-002 
      1.80000000 -0.691376824649159E+004  0.221309354552184E-002 
      1.82000000 -0.691376816745181E+004  0.229213332605221E-002 
      1.84000000 -0.691376808678679E+004  0.237279834319578E-002 
      1.86000000 -0.691376800451259E+004  0.245507254593183E-002 
      1.88000000 -0.691376792064855E+004  0.253893658084692E-002 
      1.90000000 -0.691376783521733E+004  0.262436780218903E-002 
      1.92000000 -0.691376774824478E+004  0.271134034843355E-002 
      1.94000000 -0.691376765975999E+004  0.279982514615025E-002 
      1.96000000 -0.691376756979504E+004  0.288979008865733E-002 
      1.98000000 -0.691376747838505E+004  0.298120008474525E-002 
      2.00000000 -0.691376738556791E+004  0.307401722495643E-002 
      2.02000000 -0.691376729138420E+004  0.316820093317051E-002 
      2.04000000 -0.691376719587698E+004  0.326370815221892E-002 
      2.06000000 -0.691376709909158E+004  0.336049355270130E-002 
      2.08000000 -0.691376700107543E+004  0.345850970313217E-002 
      2.10000000 -0.691376690187783E+004  0.355770730427934E-002 
      2.12000000 -0.691376680154973E+004  0.365803540184733E-002 
      2.14000000 -0.691376670014353E+004  0.375944160380101E-002 
      2.16000000 -0.691376659771284E+004  0.386187229459587E-002 
      2.18000000 -0.691376649431226E+004  0.396527287725028E-002 
      2.20000000 -0.691376638999720E+004  0.406958792802436E-002 
      2.22000000 -0.691376628482370E+004  0.417476143462531E-002 
      2.24000000 -0.691376617884815E+004  0.428073698259544E-002 
      2.26000000 -0.691376607212724E+004  0.438745788833589E-002 
      2.28000000 -0.691376596471774E+004  0.449486739245521E-002 
      2.30000000 -0.691376585667637E+004  0.460290876031054E-002 
      2.32000000 -0.691376574805969E+004  0.471152543978003E-002 
      2.34000000 -0.691376563892400E+004  0.482066113705545E-002 
      2.36000000 -0.691376552932523E+004  0.493025990480912E-002 
      2.38000000 -0.691376541931892E+004  0.504026621257277E-002 
      2.40000000 -0.691376530896011E+004  0.515062501866317E-002 
      2.42000000 -0.691376519830337E+004  0.526128176554182E-002 
      2.44000000 -0.691376508740273E+004  0.537218239760295E-002 
      2.46000000 -0.691376497631179E+004  0.548327334029190E-002 
      2.48000000 -0.691376486508365E+004  0.559450148463727E-002 
      2.50000000 -0.691376475377096E+004  0.570581417100961E-002 
      2.52000000 -0.691376464242607E+004  0.581715905996462E-002 
      2.54000000 -0.691376453110106E+004  0.592848406882482E-002 
      2.56000000 -0.691376441984782E+004  0.603973731290164E-002 
      2.58000000 -0.691376430871818E+004  0.615086694772297E-002 
      2.60000000 -0.691376419776401E+004  0.626182112726995E-002 
      2.62000000 -0.691376408703730E+004  0.637254783537699E-002 
      2.64000000 -0.691376397659038E+004  0.648299475734841E-002 
      2.66000000 -0.691376386647593E+004  0.659310920029880E-002 
      2.68000000 -0.691376375674715E+004  0.670283798410450E-002 
      2.70000000 -0.691376364745779E+004  0.681212734008894E-002 
      2.72000000 -0.691376353866242E+004  0.692092271380719E-002 
      2.74000000 -0.691376343041638E+004  0.702916875421840E-002 
      2.76000000 -0.691376332277593E+004  0.713680919845010E-002 
      2.78000000 -0.691376321579835E+004  0.724378678595147E-002 
      2.80000000 -0.691376310954199E+004  0.735004314093741E-002 
      2.82000000 -0.691376300406641E+004  0.745551872289135E-002 
      2.84000000 -0.691376289943233E+004  0.756015280413680E-002 
      2.86000000 -0.691376279570171E+004  0.766388342498053E-002 
      2.88000000 -0.691376269293774E+004  0.776664738907213E-002 
      2.90000000 -0.691376259120493E+004  0.786838020694633E-002 
      2.92000000 -0.691376249056896E+004  0.796901617645592E-002 
      2.94000000 -0.691376239109669E+004  0.806848843768277E-002 
      2.96000000 -0.691376229285610E+004  0.816672903171575E-002 
      2.98000000 -0.691376219591619E+004  0.826366893854707E-002 
      3.00000000 -0.691376210034696E+004  0.835923817142632E-002 
      3.02000000 -0.691376200621916E+004  0.845336597407599E-002 
      3.04000000 -0.691376191360421E+004  0.854598092045932E-002 
      3.06000000 -0.691376182257405E+004  0.863701108647372E-002 
      3.08000000 -0.691376173320097E+004  0.872638415822602E-002 
      3.10000000 -0.691376164555746E+004  0.881402767101118E-002 
      3.12000000 -0.691376155971592E+004  0.889986920807462E-002 
      3.14000000 -0.691376147574854E+004  0.898383659009372E-002 
      3.16000000 -0.691376139372706E+004  0.906585807471351E-002 
      3.18000000 -0.691376131372261E+004  0.914586251818606E-002 
      3.20000000 -0.691376123580548E+004  0.922377965379232E-002 
      3.22000000 -0.691376116004484E+004  0.929954029369796E-002 
      3.24000000 -0.691376108650861E+004  0.937307652307533E-002 
      3.26000000 -0.691376101526325E+004  0.944432187875746E-002 
      3.28000000 -0.691376094637353E+004  0.951321159749754E-002 
      3.30000000 -0.691376087990229E+004  0.957968284566702E-002 
      3.32000000 -0.691376081591025E+004  0.964367487857476E-002 
      3.34000000 -0.691376075445592E+004  0.970512921138708E-002 
      3.36000000 -0.691376069559530E+004  0.976398982794424E-002 
      3.38000000 -0.691376063938177E+004  0.982020336173460E-002 
      3.40000000 -0.691376058586586E+004  0.987371927068169E-002 
      3.42000000 -0.691376053509521E+004  0.992448992299098E-002 
      3.44000000 -0.691376048711442E+004  0.997247070697180E-002 
      3.46000000 -0.691376044196495E+004  0.100176201826226E-001 
      3.48000000 -0.691376039968496E+004  0.100599001752116E-001 
      3.50000000 -0.691376036030934E+004  0.100992757946118E-001 
      3.52000000 -0.691376032386957E+004  0.101357155652309E-001 
      3.54000000 -0.691376029039372E+004  0.101691914113171E-001 
      3.56000000 -0.691376025990645E+004  0.101996786809340E-001 
      3.58000000 -0.691376023242892E+004  0.102271562086060E-001 
      3.60000000 -0.691376020797891E+004  0.102516062217371E-001 
      3.62000000 -0.691376018657077E+004  0.102730143630395E-001 
      3.64000000 -0.691376016821555E+004  0.102913695838056E-001 
      3.66000000 -0.691376015292105E+004  0.103066640835826E-001 
      3.68000000 -0.691376014069191E+004  0.103188932258729E-001 
      3.70000000 -0.691376013152970E+004  0.103280554368198E-001 
      3.72000000 -0.691376012543300E+004  0.103341521270938E-001 
      3.74000000 -0.691376012239767E+004  0.103371874652893E-001 
      3.76000000 -0.691376012241681E+004  0.103371683237858E-001 
      3.78000000 -0.691376012548105E+004  0.103341040838536E-001 
      3.80000000 -0.691376013157856E+004  0.103280065730085E-001 
      3.82000000 -0.691376014069529E+004  0.103188898407271E-001 
      3.84000000 -0.691376015281505E+004  0.103067700872952E-001 
      3.86000000 -0.691376016791971E+004  0.102916654186418E-001 
      3.88000000 -0.691376018598931E+004  0.102735958239100E-001 
      3.90000000 -0.691376020700217E+004  0.102525829620012E-001 
      3.92000000 -0.691376023093504E+004  0.102286500927422E-001 
      3.94000000 -0.691376025776321E+004  0.102018219191133E-001 
      3.96000000 -0.691376028746062E+004  0.101721245168694E-001 
      3.98000000 -0.691376031999988E+004  0.101395852517864E-001 
      4.00000000 -0.691376035535250E+004  0.101042326311701E-001 
      4.02000000 -0.691376039348881E+004  0.100660963177771E-001 
      4.04000000 -0.691376043437813E+004  0.100252070052982E-001 
      4.06000000 -0.691376047798873E+004  0.998159639902360E-002 
      4.08000000 -0.691376052428793E+004  0.993529720733574E-002 
      4.10000000 -0.691376057324206E+004  0.988634307674402E-002 
      4.12000000 -0.691376062481654E+004  0.983476858801790E-002 
      4.14000000 -0.691376067897583E+004  0.978060930259053E-002 
      4.16000000 -0.691376073568334E+004  0.972390179117434E-002 
      4.18000000 -0.691376079490151E+004  0.966468362602708E-002 
      4.20000000 -0.691376085659168E+004  0.960299345210410E-002 
      4.22000000 -0.691376092071409E+004  0.953887103810233E-002 
      4.24000000 -0.691376098722783E+004  0.947235730430251E-002 
      4.26000000 -0.691376105609072E+004  0.940349441305624E-002 
      4.28000000 -0.691376112725932E+004  0.933232581132271E-002 
      4.30000000 -0.691376120068885E+004  0.925889627784570E-002 
      4.32000000 -0.691376127633318E+004  0.918325195099579E-002 
      4.34000000 -0.691376135414464E+004  0.910544048963632E-002 
      4.36000000 -0.691376143407410E+004  0.902551103600047E-002 
      4.38000000 -0.691376151607079E+004  0.894351434175448E-002 
      4.40000000 -0.691376160008232E+004  0.885950281208117E-002 
      4.42000000 -0.691376168605456E+004  0.877353057219176E-002 
      4.44000000 -0.691376177393155E+004  0.868565358024145E-002 
      4.46000000 -0.691376186365553E+004  0.859592960644777E-002 
      4.48000000 -0.691376195516682E+004  0.850441831275016E-002 
      4.50000000 -0.691376204840385E+004  0.841118128297235E-002 
      4.52000000 -0.691376214330307E+004  0.831628206535904E-002 
      4.54000000 -0.691376223979893E+004  0.821978620505841E-002 
      4.56000000 -0.691376233782393E+004  0.812176120235891E-002 
      4.58000000 -0.691376243730862E+004  0.802227650882224E-002 
      4.60000000 -0.691376253818157E+004  0.792140356208609E-002 
      4.62000000 -0.691376264036937E+004  0.781921575879534E-002 
      4.64000000 -0.691376274379677E+004  0.771578836102142E-002 
      4.66000000 -0.691376284838666E+004  0.761119847383383E-002 
      4.68000000 -0.691376295406014E+004  0.750552499348275E-002 
      4.70000000 -0.691376306073656E+004  0.739884857182293E-002 
      4.72000000 -0.691376316833363E+004  0.729125149953119E-002 
      4.74000000 -0.691376327676752E+004  0.718281761484587E-002 
      4.76000000 -0.691376338595293E+004  0.707363220147886E-002 
      4.78000000 -0.691376349580324E+004  0.696378188962115E-002 
      4.80000000 -0.691376360623060E+004  0.685335453374654E-002 
      4.82000000 -0.691376371714606E+004  0.674243907417413E-002 
      4.84000000 -0.691376382845970E+004  0.663112543111332E-002 
      4.86000000 -0.691376394008079E+004  0.651950433761067E-002 
      4.88000000 -0.691376405191789E+004  0.640766724442245E-002 
      4.90000000 -0.691376416387895E+004  0.629570618389730E-002 
      4.92000000 -0.691376427587153E+004  0.618371359828270E-002 
      4.94000000 -0.691376438780291E+004  0.607178221984891E-002 
      4.96000000 -0.691376449958017E+004  0.596000496106702E-002 
      4.98000000 -0.691376461111038E+004  0.584847475296957E-002 
      5.00000000 -0.691376472230068E+004  0.573728445621024E-002 
      5.02000000 -0.691376483305845E+004  0.562652668086304E-002 
      5.04000000 -0.691376494329145E+004  0.551629368665445E-002 
      5.06000000 -0.691376505290787E+004  0.540667726154056E-002 
      5.08000000 -0.691376516181653E+004  0.529776859796403E-002 
      5.10000000 -0.691376526992692E+004  0.518965821319448E-002 
      5.12000000 -0.691376537714933E+004  0.508243580702398E-002 
      5.14000000 -0.691376548339494E+004  0.497619019061483E-002 
      5.16000000 -0.691376558857597E+004  0.487100916120967E-002 
      5.18000000 -0.691376569260569E+004  0.476697944025999E-002 
      5.20000000 -0.691376579539857E+004  0.466418656515092E-002 
      5.22000000 -0.691376589687029E+004  0.456271484279764E-002 
      5.24000000 -0.691376599693787E+004  0.446264726689217E-002 
      5.26000000 -0.691376609551968E+004  0.436406544984470E-002 
      5.28000000 -0.691376619253558E+004  0.426704955472493E-002 
      5.30000000 -0.691376628790689E+004  0.417167824112446E-002 
      5.32000000 -0.691376638155649E+004  0.407802864272837E-002 
      5.34000000 -0.691376647340884E+004  0.398617629693637E-002 
      5.36000000 -0.691376656339000E+004  0.389619513403527E-002 
      5.38000000 -0.691376665142771E+004  0.380815741919441E-002 
      5.40000000 -0.691376673745140E+004  0.372213373622444E-002 
      5.42000000 -0.691376682139216E+004  0.363819297288276E-002 
      5.44000000 -0.691376690318283E+004  0.355640229844514E-002 
      5.46000000 -0.691376698275799E+004  0.347682714282407E-002 
      5.48000000 -0.691376706005394E+004  0.339953118960819E-002 
      5.50000000 -0.691376713500876E+004  0.332457637451556E-002 
      5.52000000 -0.691376720756228E+004  0.325202285677800E-002 
      5.54000000 -0.691376727765610E+004  0.318192902764848E-002 
      5.56000000 -0.691376734523362E+004  0.311435151117451E-002 
      5.58000000 -0.691376741024002E+004  0.304934511547428E-002 
      5.60000000 -0.691376747262226E+004  0.298696287063302E-002 
      5.62000000 -0.691376753232914E+004  0.292725599080663E-002 
      5.64000000 -0.691376758931128E+004  0.287027385488690E-002 
      5.66000000 -0.691376764352114E+004  0.281606399026015E-002 
      5.68000000 -0.691376769491309E+004  0.276467204651192E-002 
      5.70000000 -0.691376774344337E+004  0.271614175753057E-002 
      5.72000000 -0.691376778907021E+004  0.267051492139912E-002 
      5.74000000 -0.691376783175379E+004  0.262783133852367E-002 
      5.76000000 -0.691376787145633E+004  0.258812879925910E-002 
      5.78000000 -0.691376790814213E+004  0.255144299883574E-002 
      5.80000000 -0.691376794177761E+004  0.251780752343826E-002 
      5.82000000 -0.691376797233135E+004  0.248725378678736E-002 
      5.84000000 -0.691376799977416E+004  0.245981096981505E-002 
      5.86000000 -0.691376802407916E+004  0.243550597658115E-002 
      5.88000000 -0.691376804522175E+004  0.241436338400271E-002 
      5.90000000 -0.691376806317974E+004  0.239640539003658E-002 
      5.92000000 -0.691376807793337E+004  0.238165176108864E-002 
      5.94000000 -0.691376808946535E+004  0.237011978561014E-002 
      5.96000000 -0.691376809776089E+004  0.236182423852156E-002 
      5.98000000 -0.691376810280779E+004  0.235677733944934E-002 
      6.00000000 -0.691376810459641E+004  0.235498872101676E-002 
