# Real time calculation: 
# Eall: Total energy
# Eall0: Initial total energy
# 1:Time[fs] 2:Eall[eV] 3:Eall-Eall0[eV] 
      0.00000000 -0.691521565368173E+004  0.000000000000000E+000 
      0.02000000 -0.691521565374758E+004 -0.658498654700338E-007 
      0.04000000 -0.691521565374874E+004 -0.670099565886687E-007 
      0.06000000 -0.691521565373864E+004 -0.569047895512796E-007 
      0.08000000 -0.691521565369544E+004 -0.137091834459483E-007 
      0.10000000 -0.691521565357463E+004  0.107096518496058E-006 
      0.12000000 -0.691521565329963E+004  0.382106172291492E-006 
      0.14000000 -0.691521565275146E+004  0.930270880880701E-006 
      0.16000000 -0.691521565175835E+004  0.192338312426378E-005 
      0.18000000 -0.691521565008526E+004  0.359647504289391E-005 
      0.20000000 -0.691521564742387E+004  0.625785863961216E-005 
      0.22000000 -0.691521564338317E+004  0.102985588672301E-004 
      0.24000000 -0.691521563748097E+004  0.162007614120556E-004 
      0.26000000 -0.691521562913678E+004  0.245449542148195E-004 
      0.28000000 -0.691521561766610E+004  0.360156304786143E-004 
      0.30000000 -0.691521560227649E+004  0.514052430328210E-004 
      0.32000000 -0.691521558206537E+004  0.716163605558015E-004 
      0.34000000 -0.691521555601972E+004  0.976620063215048E-004 
      0.36000000 -0.691521552301751E+004  0.130664222006663E-003 
      0.38000000 -0.691521548183096E+004  0.171850767618255E-003 
      0.40000000 -0.691521543113164E+004  0.222550089791628E-003 
      0.42000000 -0.691521536949671E+004  0.284185021722330E-003 
      0.44000000 -0.691521529541645E+004  0.358265285110513E-003 
      0.46000000 -0.691521520730319E+004  0.446378539671253E-003 
      0.48000000 -0.691521510350120E+004  0.550180530867382E-003 
      0.50000000 -0.691521498229725E+004  0.671384481262899E-003 
      0.52000000 -0.691521484193186E+004  0.811749868574887E-003 
      0.54000000 -0.691521468061117E+004  0.973070561034942E-003 
      0.56000000 -0.691521449651922E+004  0.115716250959580E-002 
      0.58000000 -0.691521428783070E+004  0.136585102946571E-002 
      0.60000000 -0.691521405272407E+004  0.160095765859624E-002 
      0.62000000 -0.691521378939410E+004  0.186428762947158E-002 
      0.64000000 -0.691521349606384E+004  0.215761788768749E-002 
      0.66000000 -0.691521317099606E+004  0.248268567433448E-002 
      0.68000000 -0.691521281250364E+004  0.284117809059153E-002 
      0.70000000 -0.691521241895866E+004  0.323472307299058E-002 
      0.72000000 -0.691521198880010E+004  0.366488162699315E-002 
      0.74000000 -0.691521152054057E+004  0.413314115878665E-002 
      0.76000000 -0.691521101277074E+004  0.464091098805187E-002 
      0.78000000 -0.691521046416298E+004  0.518951874936038E-002 
      0.80000000 -0.691520987347412E+004  0.578020761104939E-002 
      0.82000000 -0.691520923954699E+004  0.641413474467490E-002 
      0.84000000 -0.691520856131024E+004  0.709237148974460E-002 
      0.86000000 -0.691520783777684E+004  0.781590489199871E-002 
      0.88000000 -0.691520706804106E+004  0.858564066782949E-002 
      0.90000000 -0.691520625127475E+004  0.940240697767097E-002 
      0.92000000 -0.691520538672162E+004  0.102669601119922E-001 
      0.94000000 -0.691520447369017E+004  0.111799915647594E-001 
      0.96000000 -0.691520351154595E+004  0.121421357843916E-001 
      0.98000000 -0.691520249970291E+004  0.131539788203065E-001 
      1.00000000 -0.691520143761372E+004  0.142160680081341E-001 
      1.02000000 -0.691520032476006E+004  0.153289216727192E-001 
      1.04000000 -0.691519916064287E+004  0.164930388651529E-001 
      1.06000000 -0.691519794477266E+004  0.177089090711882E-001 
      1.08000000 -0.691519667665999E+004  0.189770217448689E-001 
      1.10000000 -0.691519535580644E+004  0.202978752868617E-001 
      1.12000000 -0.691519398169617E+004  0.216719855649382E-001 
      1.14000000 -0.691519255378834E+004  0.230998933872828E-001 
      1.16000000 -0.691519107151011E+004  0.245821716192640E-001 
      1.18000000 -0.691518953424970E+004  0.261194320357067E-001 
      1.20000000 -0.691518794135074E+004  0.277123309929639E-001 
      1.22000000 -0.691518629210735E+004  0.293615743840530E-001 
      1.24000000 -0.691518458576096E+004  0.310679207716747E-001 
      1.26000000 -0.691518282149783E+004  0.328321839009708E-001 
      1.28000000 -0.691518099844783E+004  0.346552339036987E-001 
      1.30000000 -0.691517911568449E+004  0.365379972371329E-001 
      1.32000000 -0.691517717222646E+004  0.384814552695278E-001 
      1.34000000 -0.691517516703914E+004  0.404866425887045E-001 
      1.36000000 -0.691517309903806E+004  0.425546436725893E-001 
      1.38000000 -0.691517096709371E+004  0.446865880199245E-001 
      1.40000000 -0.691516877003724E+004  0.468836444874774E-001 
      1.42000000 -0.691516650666619E+004  0.491470155398547E-001 
      1.44000000 -0.691516417575251E+004  0.514779292178055E-001 
      1.46000000 -0.691516177605120E+004  0.538776305342119E-001 
      1.48000000 -0.691515930631055E+004  0.563473711771203E-001 
      1.50000000 -0.691515676528235E+004  0.588883993844661E-001 
      1.52000000 -0.691515415173174E+004  0.615019499866248E-001 
      1.54000000 -0.691515146444811E+004  0.641892336245257E-001 
      1.56000000 -0.691514870225561E+004  0.669514261216696E-001 
      1.58000000 -0.691514586402433E+004  0.697896573959786E-001 
      1.60000000 -0.691514294868095E+004  0.727050007823172E-001 
      1.62000000 -0.691513995522070E+004  0.756984610325095E-001 
      1.64000000 -0.691513688271908E+004  0.787709626463699E-001 
      1.66000000 -0.691513373034244E+004  0.819233392908981E-001 
      1.68000000 -0.691513049735764E+004  0.851563240872235E-001 
      1.70000000 -0.691512718314337E+004  0.884705383639079E-001 
      1.72000000 -0.691512378719985E+004  0.918664818827914E-001 
      1.74000000 -0.691512030915725E+004  0.953445244793758E-001 
      1.76000000 -0.691511674878483E+004  0.989048969042921E-001 
      1.78000000 -0.691511310599715E+004  0.102547684584330E+000 
      1.80000000 -0.691510938086054E+004  0.106272821190893E+000 
      1.82000000 -0.691510557359750E+004  0.110080084233199E+000 
      1.84000000 -0.691510168458921E+004  0.113969092523868E+000 
      1.86000000 -0.691509771437692E+004  0.117939304816202E+000 
      1.88000000 -0.691509366366274E+004  0.121990018992892E+000 
      1.90000000 -0.691508953330884E+004  0.126120372893556E+000 
      1.92000000 -0.691508532433561E+004  0.130329346121378E+000 
      1.94000000 -0.691508103791864E+004  0.134615763095705E+000 
      1.96000000 -0.691507667538445E+004  0.138978297284825E+000 
      1.98000000 -0.691507223820411E+004  0.143415477617406E+000 
      2.00000000 -0.691506772798636E+004  0.147925695374986E+000 
      2.02000000 -0.691506314647033E+004  0.152507211399230E+000 
      2.04000000 -0.691505849551607E+004  0.157158165659592E+000 
      2.06000000 -0.691505377709497E+004  0.161876586765281E+000 
      2.08000000 -0.691504899327861E+004  0.166660403116839E+000 
      2.10000000 -0.691504414622936E+004  0.171507452370159E+000 
      2.12000000 -0.691503923818877E+004  0.176415492957739E+000 
      2.14000000 -0.691503427146666E+004  0.181382215073196E+000 
      2.16000000 -0.691502924842924E+004  0.186405252494144E+000 
      2.18000000 -0.691502417148841E+004  0.191482193323089E+000 
      2.20000000 -0.691501904309175E+004  0.196610589978132E+000 
      2.22000000 -0.691501386571249E+004  0.201787969244778E+000 
      2.24000000 -0.691500864183967E+004  0.207011842057043E+000 
      2.26000000 -0.691500337397037E+004  0.212279711358239E+000 
      2.28000000 -0.691499806460152E+004  0.217589080213872E+000 
      2.30000000 -0.691499271622356E+004  0.222937458174356E+000 
      2.32000000 -0.691498733131485E+004  0.228322366876712E+000 
      2.34000000 -0.691498191233737E+004  0.233741344357006E+000 
      2.36000000 -0.691497646173171E+004  0.239191950020182E+000 
      2.38000000 -0.691497098191478E+004  0.244671766946326E+000 
      2.40000000 -0.691496547527856E+004  0.250178403171401E+000 
      2.42000000 -0.691495994418977E+004  0.255709491964901E+000 
      2.44000000 -0.691495439099028E+004  0.261262691447018E+000 
      2.46000000 -0.691494881799937E+004  0.266835682362815E+000 
      2.48000000 -0.691494322751672E+004  0.272426165013395E+000 
      2.50000000 -0.691493762182607E+004  0.278031855657304E+000 
      2.52000000 -0.691493200320053E+004  0.283650481198084E+000 
      2.54000000 -0.691492637390862E+004  0.289279773108487E+000 
      2.56000000 -0.691492073622065E+004  0.294917461082460E+000 
      2.58000000 -0.691491509241528E+004  0.300561266455107E+000 
      2.60000000 -0.691490944478721E+004  0.306208894516698E+000 
      2.62000000 -0.691490379565554E+004  0.311858026187856E+000 
      2.64000000 -0.691489814737054E+004  0.317506311193580E+000 
      2.66000000 -0.691489250232095E+004  0.323151360778647E+000 
      2.68000000 -0.691488686294089E+004  0.328790740845284E+000 
      2.70000000 -0.691488123171586E+004  0.334421965869656E+000 
      2.72000000 -0.691487561118802E+004  0.340042493713930E+000 
      2.74000000 -0.691487000396199E+004  0.345649719743076E+000 
      2.76000000 -0.691486441270942E+004  0.351240972313649E+000 
      2.78000000 -0.691485884017267E+004  0.356813509063053E+000 
      2.80000000 -0.691485328916743E+004  0.362364514300105E+000 
      2.82000000 -0.691484776258625E+004  0.367891095482998E+000 
      2.84000000 -0.691484226339879E+004  0.373390282937014E+000 
      2.86000000 -0.691483679465136E+004  0.378859030373471E+000 
      2.88000000 -0.691483135946634E+004  0.384294215395522E+000 
      2.90000000 -0.691482596103973E+004  0.389692642000087E+000 
      2.92000000 -0.691482060263808E+004  0.395051043646676E+000 
      2.94000000 -0.691481528759309E+004  0.400366088644858E+000 
      2.96000000 -0.691481001929464E+004  0.405634387089280E+000 
      2.98000000 -0.691480480118510E+004  0.410852496629966E+000 
      3.00000000 -0.691479963675077E+004  0.416016930964954E+000 
      3.02000000 -0.691479452951222E+004  0.421124169508493E+000 
      3.04000000 -0.691478948301373E+004  0.426170667998150E+000 
      3.06000000 -0.691478450081293E+004  0.431152868796410E+000 
      3.08000000 -0.691477958646826E+004  0.436067213469168E+000 
      3.10000000 -0.691477474352753E+004  0.440910154198693E+000 
      3.12000000 -0.691476997551585E+004  0.445678165877203E+000 
      3.14000000 -0.691476528592246E+004  0.450367759268477E+000 
      3.16000000 -0.691476067818924E+004  0.454975492494309E+000 
      3.18000000 -0.691475615569819E+004  0.459497983542607E+000 
      3.20000000 -0.691475172176017E+004  0.463931921558176E+000 
      3.22000000 -0.691474737960470E+004  0.468274077026768E+000 
      3.24000000 -0.691474313237033E+004  0.472521311400748E+000 
      3.26000000 -0.691473898309587E+004  0.476670585864742E+000 
      3.28000000 -0.691473493471124E+004  0.480718970494167E+000 
      3.30000000 -0.691473099003059E+004  0.484663651142306E+000 
      3.32000000 -0.691472715174367E+004  0.488501938064431E+000 
      3.34000000 -0.691472342240677E+004  0.492231274957222E+000 
      3.36000000 -0.691471980443336E+004  0.495849248374079E+000 
      3.38000000 -0.691471630008138E+004  0.499353600350771E+000 
      3.40000000 -0.691471291143467E+004  0.502742247057384E+000 
      3.42000000 -0.691470964038264E+004  0.506013299093731E+000 
      3.44000000 -0.691470648859250E+004  0.509165089234086E+000 
      3.46000000 -0.691470345747024E+004  0.512196211492097E+000 
      3.48000000 -0.691470054811558E+004  0.515105566154748E+000 
      3.50000000 -0.691469776126932E+004  0.517892412413373E+000 
      3.52000000 -0.691469509724759E+004  0.520556434139275E+000 
      3.54000000 -0.691469255587321E+004  0.523097808517037E+000 
      3.56000000 -0.691469013640162E+004  0.525517280114795E+000 
      3.58000000 -0.691468783744607E+004  0.527816235659841E+000 
      3.60000000 -0.691468565690361E+004  0.529996778119724E+000 
      3.62000000 -0.691468359189369E+004  0.532061788041683E+000 
      3.64000000 -0.691468163871445E+004  0.534014967278798E+000 
      3.66000000 -0.691467979281879E+004  0.535860862945871E+000 
      3.68000000 -0.691467804882221E+004  0.537604859517663E+000 
      3.70000000 -0.691467640055011E+004  0.539253131620142E+000 
      3.72000000 -0.691467484113072E+004  0.540812551009741E+000 
      3.74000000 -0.691467336314080E+004  0.542290540934740E+000 
      3.76000000 -0.691467195880500E+004  0.543694876729528E+000 
      3.78000000 -0.691467062025546E+004  0.545033426269735E+000 
      3.80000000 -0.691466933984895E+004  0.546313832780121E+000 
      3.82000000 -0.691466811053836E+004  0.547543143367209E+000 
      3.84000000 -0.691466692628817E+004  0.548727393558950E+000 
      3.86000000 -0.691466578252731E+004  0.549871154422162E+000 
      3.88000000 -0.691466467661983E+004  0.550977061900416E+000 
      3.90000000 -0.691466360833578E+004  0.552045345950069E+000 
      3.92000000 -0.691466258029640E+004  0.553073385330542E+000 
      3.94000000 -0.691466159836995E+004  0.554055311778917E+000 
      3.96000000 -0.691466067198579E+004  0.554981695938465E+000 
      3.98000000 -0.691465981433646E+004  0.555839345269998E+000 
      4.00000000 -0.691465904243535E+004  0.556611246386064E+000 
      4.02000000 -0.691465837699636E+004  0.557276685374048E+000 
      4.04000000 -0.691465784210859E+004  0.557811573139088E+000 
      4.06000000 -0.691465746467989E+004  0.558189001841777E+000 
      4.08000000 -0.691465727362375E+004  0.558380057984376E+000 
      4.10000000 -0.691465729877997E+004  0.558354901761910E+000 
      4.12000000 -0.691465756956356E+004  0.558084118172341E+000 
      4.14000000 -0.691465811334105E+004  0.557540340679330E+000 
      4.16000000 -0.691465895355310E+004  0.556700128634091E+000 
      4.18000000 -0.691466010760665E+004  0.555546075076659E+000 
      4.20000000 -0.691466158457290E+004  0.554069108829985E+000 
      4.22000000 -0.691466338274296E+004  0.552270938774024E+000 
      4.24000000 -0.691466548710376E+004  0.550166577975088E+000 
      4.26000000 -0.691466786680619E+004  0.547786875536761E+000 
      4.28000000 -0.691467047270747E+004  0.545180974262987E+000 
      4.30000000 -0.691467323508595E+004  0.542418595781582E+000 
      4.32000000 -0.691467606162193E+004  0.539592059802699E+000 
      4.34000000 -0.691467883574741E+004  0.536817934318286E+000 
      4.36000000 -0.691468141546786E+004  0.534238213869509E+000 
      4.38000000 -0.691468363275548E+004  0.532020926248113E+000 
      4.40000000 -0.691468529360730E+004  0.530360074433861E+000 
      4.42000000 -0.691468617884872E+004  0.529474833007150E+000 
      4.44000000 -0.691468604575385E+004  0.529607927881458E+000 
      4.46000000 -0.691468463053389E+004  0.531023147838282E+000 
      4.48000000 -0.691468165172330E+004  0.534001958427666E+000 
      4.50000000 -0.691467681447343E+004  0.538839208305460E+000 
      4.52000000 -0.691466981573232E+004  0.545837949408691E+000 
      4.54000000 -0.691466035026377E+004  0.555303417960454E+000 
      4.56000000 -0.691464811742772E+004  0.567536254009561E+000 
      4.58000000 -0.691463282861784E+004  0.582825063891485E+000 
      4.60000000 -0.691461421521320E+004  0.601438468530728E+000 
      4.62000000 -0.691459203688067E+004  0.623616801065440E+000 
      4.64000000 -0.691456609003617E+004  0.649563645561206E+000 
      4.66000000 -0.691453621624926E+004  0.679437432466433E+000 
      4.68000000 -0.691450231035583E+004  0.713343325904131E+000 
      4.70000000 -0.691446432803512E+004  0.751325646611792E+000 
      4.72000000 -0.691442229259273E+004  0.793361089000760E+000 
      4.74000000 -0.691437630070003E+004  0.839352981701321E+000 
      4.76000000 -0.691432652684311E+004  0.889126838617908E+000 
      4.78000000 -0.691427322624738E+004  0.942427434353308E+000 
      4.80000000 -0.691421673607109E+004  0.998917610641180E+000 
      4.82000000 -0.691415747469314E+004  0.105817898859251E+001 
      4.84000000 -0.691409593895723E+004  0.111971472450443E+001 
      4.86000000 -0.691403269927730E+004  0.118295440442696E+001 
      4.88000000 -0.691396839257036E+004  0.124726111136926E+001 
      4.90000000 -0.691390371303304E+004  0.131194064869380E+001 
      4.92000000 -0.691383940083941E+004  0.137625284232030E+001 
      4.94000000 -0.691377622890389E+004  0.143942477784338E+001 
      4.96000000 -0.691371498790433E+004  0.150066577739704E+001 
      4.98000000 -0.691365646983366E+004  0.155918384806693E+001 
      5.00000000 -0.691360145039911E+004  0.161420328262575E+001 
      5.02000000 -0.691355067062479E+004  0.166498305694419E+001 
      5.04000000 -0.691350481807376E+004  0.171083560797289E+001 
      5.06000000 -0.691346450812022E+004  0.175114556151563E+001 
      5.08000000 -0.691343026572985E+004  0.178538795187879E+001 
      5.10000000 -0.691340250820967E+004  0.181314547206506E+001 
      5.12000000 -0.691338152938297E+004  0.183412429875661E+001 
      5.14000000 -0.691336748563289E+004  0.184816804883694E+001 
      5.16000000 -0.691336038421321E+004  0.185526946851846E+001 
      5.18000000 -0.691336007419501E+004  0.185557948672222E+001 
      5.20000000 -0.691336624036160E+004  0.184941332013475E+001 
      5.22000000 -0.691337840030301E+004  0.183725337872121E+001 
      5.24000000 -0.691339590489212E+004  0.181974878960703E+001 
      5.26000000 -0.691341794225973E+004  0.179771142199627E+001 
      5.28000000 -0.691344354530943E+004  0.177210837229933E+001 
      5.30000000 -0.691347160273858E+004  0.174405094315213E+001 
      5.32000000 -0.691350087346556E+004  0.171478021617333E+001 
      5.34000000 -0.691353000429425E+004  0.168564938748122E+001 
      5.36000000 -0.691355755058126E+004  0.165810310046850E+001 
      5.38000000 -0.691358199961602E+004  0.163365406570724E+001 
      5.40000000 -0.691360179636730E+004  0.161385731442870E+001 
      5.42000000 -0.691361537120387E+004  0.160028247786451E+001 
      5.44000000 -0.691362116915191E+004  0.159448452982299E+001 
      5.46000000 -0.691361768021157E+004  0.159797347016241E+001 
      5.48000000 -0.691360347021847E+004  0.161218346326214E+001 
      5.50000000 -0.691357721170419E+004  0.163844197754395E+001 
      5.52000000 -0.691353771418116E+004  0.167793950057023E+001 
      5.54000000 -0.691348395325294E+004  0.173170042879405E+001 
      5.56000000 -0.691341509793073E+004  0.180055575100029E+001 
      5.58000000 -0.691333053552755E+004  0.188511815417640E+001 
      5.60000000 -0.691322989349892E+004  0.198576018280632E+001 
      5.62000000 -0.691311305760602E+004  0.210259607570908E+001 
      5.64000000 -0.691298018580440E+004  0.223546787732807E+001 
      5.66000000 -0.691283171730142E+004  0.238393638031427E+001 
      5.68000000 -0.691266837628237E+004  0.254727739936535E+001 
      5.70000000 -0.691249116989082E+004  0.272448379091034E+001 
      5.72000000 -0.691230138015637E+004  0.291427352536465E+001 
      5.74000000 -0.691210054967844E+004  0.311510400329330E+001 
      5.76000000 -0.691189046102800E+004  0.332519265373443E+001 
      5.78000000 -0.691167311000190E+004  0.354254367983235E+001 
      5.80000000 -0.691145067303796E+004  0.376498064376701E+001 
      5.82000000 -0.691122546929084E+004  0.399018439088818E+001 
      5.84000000 -0.691099991806427E+004  0.421573561745633E+001 
      5.86000000 -0.691077649248573E+004  0.443916119599668E+001 
      5.88000000 -0.691055767048198E+004  0.465798319975448E+001 
      5.90000000 -0.691034588426881E+004  0.486976941292162E+001 
      5.92000000 -0.691014346968105E+004  0.507218400067957E+001 
      5.94000000 -0.690995261675389E+004  0.526303692783904E+001 
      5.96000000 -0.690977532300070E+004  0.544033068102793E+001 
      5.98000000 -0.690961335079247E+004  0.560230288926500E+001 
      6.00000000 -0.690946819016746E+004  0.574746351427309E+001 
