# Real time calculation: 
# Eall: Total energy
# Eall0: Initial total energy
# 1:Time[fs] 2:Eall[eV] 3:Eall-Eall0[eV] 
      0.00000000 -0.172991053397690E+004  0.000000000000000E+000 
      0.02000000 -0.172991053398862E+004 -0.117219473597267E-007 
      0.04000000 -0.172991053398866E+004 -0.117615838062800E-007 
      0.06000000 -0.172991053398870E+004 -0.118010269043136E-007 
      0.08000000 -0.172991053398873E+004 -0.118391165627088E-007 
      0.10000000 -0.172991053398877E+004 -0.118712124169910E-007 
      0.12000000 -0.172991053398878E+004 -0.118828133281774E-007 
      0.14000000 -0.172991053398873E+004 -0.118360229863924E-007 
      0.16000000 -0.172991053398854E+004 -0.116482815736934E-007 
      0.18000000 -0.172991053398805E+004 -0.111562095908724E-007 
      0.20000000 -0.172991053398697E+004 -0.100701709553103E-007 
      0.22000000 -0.172991053398481E+004 -0.790988794389236E-008 
      0.24000000 -0.172991053398082E+004 -0.392864857325712E-008 
      0.26000000 -0.172991053397391E+004  0.298124082637195E-008 
      0.28000000 -0.172991053396251E+004  0.143874500533101E-007 
      0.30000000 -0.172991053394447E+004  0.324272536451225E-007 
      0.32000000 -0.172991053391698E+004  0.599159993982163E-007 
      0.34000000 -0.172991053387645E+004  0.100444169324766E-006 
      0.36000000 -0.172991053381844E+004  0.158457619288421E-006 
      0.38000000 -0.172991053373758E+004  0.239312103286879E-006 
      0.40000000 -0.172991053362761E+004  0.349283327574915E-006 
      0.42000000 -0.172991053348137E+004  0.495525574081150E-006 
      0.44000000 -0.172991053329092E+004  0.685980246558200E-006 
      0.46000000 -0.172991053304769E+004  0.929200696823760E-006 
      0.48000000 -0.172991053274278E+004  0.123411227924757E-005 
      0.50000000 -0.172991053236720E+004  0.160969216560266E-005 
      0.52000000 -0.172991053191233E+004  0.206456660009868E-005 
      0.54000000 -0.172991053137035E+004  0.260654763632853E-005 
      0.56000000 -0.172991053073480E+004  0.324209640177743E-005 
      0.58000000 -0.172991053000114E+004  0.397575407312929E-005 
      0.60000000 -0.172991052916736E+004  0.480953650205125E-005 
      0.62000000 -0.172991052823455E+004  0.574234392216285E-005 
      0.64000000 -0.172991052720749E+004  0.676940816561797E-005 
      0.66000000 -0.172991052609508E+004  0.788181837918587E-005 
      0.68000000 -0.172991052491072E+004  0.906617125677887E-005 
      0.70000000 -0.172991052367250E+004  0.103043950922994E-004 
      0.72000000 -0.172991052240308E+004  0.115738122312119E-004 
      0.74000000 -0.172991052112942E+004  0.128474743368759E-004 
      0.76000000 -0.172991051988204E+004  0.140948567050810E-004 
      0.78000000 -0.172991051869396E+004  0.152829398556660E-004 
      0.80000000 -0.172991051759914E+004  0.163777541938435E-004 
      0.82000000 -0.172991051663046E+004  0.173464312446462E-004 
      0.84000000 -0.172991051581709E+004  0.181598043838666E-004 
      0.86000000 -0.172991051518130E+004  0.187955929014800E-004 
      0.88000000 -0.172991051473469E+004  0.192422078739084E-004 
      0.90000000 -0.172991051447372E+004  0.195031781049861E-004 
      0.92000000 -0.172991051437469E+004  0.196022063831006E-004 
      0.94000000 -0.172991051438805E+004  0.195888407799743E-004 
      0.96000000 -0.172991051443217E+004  0.195447248349148E-004 
      0.98000000 -0.172991051438651E+004  0.195903813809798E-004 
      1.00000000 -0.172991051408444E+004  0.198924563472700E-004 
      1.02000000 -0.172991051330556E+004  0.206713361105630E-004 
      1.04000000 -0.172991051176786E+004  0.222090332146917E-004 
      1.06000000 -0.172991050911969E+004  0.248572060804479E-004 
      1.08000000 -0.172991050493172E+004  0.290451758152576E-004 
      1.10000000 -0.172991049868912E+004  0.352877722961130E-004 
      1.12000000 -0.172991048978406E+004  0.441928308717299E-004 
      1.14000000 -0.172991047750874E+004  0.564681540693507E-004 
      1.16000000 -0.172991046104916E+004  0.729277399306116E-004 
      1.18000000 -0.172991043947984E+004  0.944970550123740E-004 
      1.20000000 -0.172991041175975E+004  0.122217150196665E-003 
      1.22000000 -0.172991037672950E+004  0.157247400245853E-003 
      1.24000000 -0.172991033311023E+004  0.200866661960284E-003 
      1.26000000 -0.172991027950425E+004  0.254472644248800E-003 
      1.28000000 -0.172991021439759E+004  0.319579300437257E-003 
      1.30000000 -0.172991013616483E+004  0.397812066674525E-003 
      1.32000000 -0.172991004307611E+004  0.490900785376666E-003 
      1.34000000 -0.172990993330669E+004  0.600670203693978E-003 
      1.36000000 -0.172990980494897E+004  0.729027926931464E-003 
      1.38000000 -0.172990965602712E+004  0.877949774331950E-003 
      1.40000000 -0.172990948451439E+004  0.104946250280580E-002 
      1.42000000 -0.172990928835300E+004  0.124562389319345E-002 
      1.44000000 -0.172990906547663E+004  0.146850026866632E-002 
      1.46000000 -0.172990881383535E+004  0.172014154271358E-002 
      1.48000000 -0.172990853142294E+004  0.200255395468071E-002 
      1.50000000 -0.172990821630625E+004  0.231767064347825E-002 
      1.52000000 -0.172990786665654E+004  0.266732035296373E-002 
      1.54000000 -0.172990748078238E+004  0.305319451512965E-002 
      1.56000000 -0.172990705716382E+004  0.347681307594586E-002 
      1.58000000 -0.172990659448746E+004  0.393948943218564E-002 
      1.60000000 -0.172990609168195E+004  0.444229494385162E-002 
      1.62000000 -0.172990554795349E+004  0.498602340986559E-002 
      1.64000000 -0.172990496282086E+004  0.557115603815037E-002 
      1.66000000 -0.172990433614940E+004  0.619782749188969E-002 
      1.68000000 -0.172990366818336E+004  0.686579353265330E-002 
      1.70000000 -0.172990295957606E+004  0.757440083559957E-002 
      1.72000000 -0.172990221141737E+004  0.832255952064452E-002 
      1.74000000 -0.172990142525787E+004  0.910871902101986E-002 
      1.76000000 -0.172990060312897E+004  0.993084792862324E-002 
      1.78000000 -0.172989974755850E+004  0.107864183923395E-001 
      1.80000000 -0.172989886158138E+004  0.116723955177081E-001 
      1.82000000 -0.172989794874454E+004  0.125852323553294E-001 
      1.84000000 -0.172989701310589E+004  0.135208710008245E-001 
      1.86000000 -0.172989605922664E+004  0.144747502514365E-001 
      1.88000000 -0.172989509215676E+004  0.154418201386856E-001 
      1.90000000 -0.172989411741315E+004  0.164165637417553E-001 
      1.92000000 -0.172989314095041E+004  0.173930264840470E-001 
      1.94000000 -0.172989216912374E+004  0.183648531518811E-001 
      1.96000000 -0.172989120864418E+004  0.193253327150040E-001 
      1.98000000 -0.172989026652595E+004  0.202674509444540E-001 
      2.00000000 -0.172988935002608E+004  0.211839508194729E-001 
      2.02000000 -0.172988846657636E+004  0.220674005330142E-001 
      2.04000000 -0.172988762370813E+004  0.229102687688952E-001 
      2.06000000 -0.172988682896991E+004  0.237050069893807E-001 
      2.08000000 -0.172988608983866E+004  0.244441382399648E-001 
      2.10000000 -0.172988541362500E+004  0.251203518965256E-001 
      2.12000000 -0.172988480737311E+004  0.257266037831227E-001 
      2.14000000 -0.172988427775603E+004  0.262562208675137E-001 
      2.16000000 -0.172988383096726E+004  0.267030096335792E-001 
      2.18000000 -0.172988347260948E+004  0.270613674172017E-001 
      2.20000000 -0.172988320758123E+004  0.273263956696341E-001 
      2.22000000 -0.172988303996283E+004  0.274940140702504E-001 
      2.24000000 -0.172988297290248E+004  0.275610744138500E-001 
      2.26000000 -0.172988300850380E+004  0.275254730998603E-001 
      2.28000000 -0.172988314771586E+004  0.273862610322151E-001 
      2.30000000 -0.172988339022712E+004  0.271437497744593E-001 
      2.32000000 -0.172988373436426E+004  0.267996126387355E-001 
      2.34000000 -0.172988417699743E+004  0.263569794698687E-001 
      2.36000000 -0.172988471345307E+004  0.258205238300810E-001 
      2.38000000 -0.172988533743563E+004  0.251965412645388E-001 
      2.40000000 -0.172988604095954E+004  0.244930173526843E-001 
      2.42000000 -0.172988681429252E+004  0.237196843767537E-001 
      2.44000000 -0.172988764591149E+004  0.228880654089127E-001 
      2.46000000 -0.172988852247236E+004  0.220115045393648E-001 
      2.48000000 -0.172988942879480E+004  0.211051820996462E-001 
      2.50000000 -0.172989034786310E+004  0.201861137921713E-001 
      2.52000000 -0.172989126084416E+004  0.192731327318288E-001 
      2.54000000 -0.172989214712337E+004  0.183868535243400E-001 
      2.56000000 -0.172989298435941E+004  0.175496174898501E-001 
      2.58000000 -0.172989374855866E+004  0.167854182388289E-001 
      2.60000000 -0.172989441416983E+004  0.161198070697338E-001 
      2.62000000 -0.172989495419918E+004  0.155797777135708E-001 
      2.64000000 -0.172989534034674E+004  0.151936301504108E-001 
      2.66000000 -0.172989554316356E+004  0.149908133327434E-001 
      2.68000000 -0.172989553222995E+004  0.150017469444371E-001 
      2.70000000 -0.172989527635439E+004  0.152576225069840E-001 
      2.72000000 -0.172989474379249E+004  0.157901844037934E-001 
      2.74000000 -0.172989390248525E+004  0.166314916458137E-001 
      2.76000000 -0.172989272031539E+004  0.178136615029961E-001 
      2.78000000 -0.172989116538042E+004  0.193685964754958E-001 
      2.80000000 -0.172988920628055E+004  0.213276963447491E-001 
      2.82000000 -0.172988681241953E+004  0.237215573672599E-001 
      2.84000000 -0.172988395431584E+004  0.265796610556019E-001 
      2.86000000 -0.172988060392149E+004  0.299300554064544E-001 
      2.88000000 -0.172987673494525E+004  0.337990316477853E-001 
      2.90000000 -0.172987232317698E+004  0.382107999125646E-001 
      2.92000000 -0.172986734680927E+004  0.431871676261229E-001 
      2.94000000 -0.172986178675228E+004  0.487472246173989E-001 
      2.96000000 -0.172985562693773E+004  0.549070391690725E-001 
      2.98000000 -0.172984885460744E+004  0.616793694553399E-001 
      3.00000000 -0.172984146058209E+004  0.690733948071927E-001 
      3.02000000 -0.172983343950554E+004  0.770944713591384E-001 
      3.04000000 -0.172982479006032E+004  0.857439165734896E-001 
      3.06000000 -0.172981551514981E+004  0.950188270826632E-001 
      3.08000000 -0.172980562204329E+004  0.104911933605865E+000 
      3.10000000 -0.172979512247992E+004  0.115411496977082E+000 
      3.12000000 -0.172978403272843E+004  0.126501248469417E+000 
      3.14000000 -0.172977237359986E+004  0.138160377030801E+000 
      3.16000000 -0.172976017041148E+004  0.150363565411157E+000 
      3.18000000 -0.172974745290056E+004  0.163081076334364E+000 
      3.20000000 -0.172973425508781E+004  0.176278889080806E+000 
      3.22000000 -0.172972061509085E+004  0.189918886044332E+000 
      3.24000000 -0.172970657488949E+004  0.203959087404383E+000 
      3.26000000 -0.172969218004578E+004  0.218353931110503E+000 
      3.28000000 -0.172967747938236E+004  0.233054594532682E+000 
      3.30000000 -0.172966252462372E+004  0.248009353177192E+000 
      3.32000000 -0.172964737000659E+004  0.263163970305703E+000 
      3.34000000 -0.172963207186590E+004  0.278462110993455E+000 
      3.36000000 -0.172961668820339E+004  0.293845773507213E+000 
      3.38000000 -0.172960127824731E+004  0.309255729584396E+000 
      3.40000000 -0.172958590201173E+004  0.324631965161170E+000 
      3.42000000 -0.172957061986372E+004  0.339914113170347E+000 
      3.44000000 -0.172955549210694E+004  0.355041869956482E+000 
      3.46000000 -0.172954057858975E+004  0.369955387143048E+000 
      3.48000000 -0.172952593834487E+004  0.384595632023637E+000 
      3.50000000 -0.172951162926717E+004  0.398904709723520E+000 
      3.52000000 -0.172949770783464E+004  0.412826142258787E+000 
      3.54000000 -0.172948422887586E+004  0.426305101032535E+000 
      3.56000000 -0.172947124538555E+004  0.439288591341168E+000 
      3.58000000 -0.172945880838738E+004  0.451725589514569E+000 
      3.60000000 -0.172944696684130E+004  0.463567135599263E+000 
      3.62000000 -0.172943576759094E+004  0.474766385959266E+000 
      3.64000000 -0.172942525534355E+004  0.485278633349721E+000 
      3.66000000 -0.172941547267322E+004  0.495061303676960E+000 
      3.68000000 -0.172940646003601E+004  0.504073940886381E+000 
      3.70000000 -0.172939825578416E+004  0.512278192736250E+000 
      3.72000000 -0.172939089616580E+004  0.519637811092560E+000 
      3.74000000 -0.172938441529600E+004  0.526118680891671E+000 
      3.76000000 -0.172937884508410E+004  0.531688892798172E+000 
      3.78000000 -0.172937421510328E+004  0.536318873612654E+000 
      3.80000000 -0.172937055239091E+004  0.539981585990291E+000 
      3.82000000 -0.172936788116866E+004  0.542652808237613E+000 
      3.84000000 -0.172936622247543E+004  0.544311501465294E+000 
      3.86000000 -0.172936559370889E+004  0.544940268009371E+000 
      3.88000000 -0.172936600807523E+004  0.544525901666331E+000 
      3.90000000 -0.172936747395130E+004  0.543060025598407E+000 
      3.92000000 -0.172936999416860E+004  0.540539808297928E+000 
      3.94000000 -0.172937356523256E+004  0.536968744339659E+000 
      3.96000000 -0.172937817649494E+004  0.532357481954231E+000 
      3.98000000 -0.172938380930175E+004  0.526724675150066E+000 
      4.00000000 -0.172939043614249E+004  0.520097834402004E+000 
      4.02000000 -0.172939801982982E+004  0.512514147077023E+000 
      4.04000000 -0.172940651274050E+004  0.504021236397366E+000 
      4.06000000 -0.172941585614935E+004  0.494677827543786E+000 
      4.08000000 -0.172942597968738E+004  0.484554289515739E+000 
      4.10000000 -0.172943680095456E+004  0.473733022336543E+000 
      4.12000000 -0.172944822531484E+004  0.462308662052501E+000 
      4.14000000 -0.172946014589689E+004  0.450388080005330E+000 
      4.16000000 -0.172947244381976E+004  0.438090157131792E+000 
      4.18000000 -0.172948498865755E+004  0.425545319345075E+000 
      4.20000000 -0.172949763915031E+004  0.412894826587455E+000 
      4.22000000 -0.172951024416250E+004  0.400289814397424E+000 
      4.24000000 -0.172952264388327E+004  0.387890093622386E+000 
      4.26000000 -0.172953467125713E+004  0.375862719762192E+000 
      4.28000000 -0.172954615362713E+004  0.364380349768514E+000 
      4.30000000 -0.172955691456709E+004  0.353619409809309E+000 
      4.32000000 -0.172956677587475E+004  0.343758102147202E+000 
      4.34000000 -0.172957555969368E+004  0.334974283214504E+000 
      4.36000000 -0.172958309072950E+004  0.327443247397370E+000 
      4.38000000 -0.172958919852333E+004  0.321335453561151E+000 
      4.40000000 -0.172959371974461E+004  0.316814232285753E+000 
      4.42000000 -0.172959650046494E+004  0.314033511958272E+000 
      4.44000000 -0.172959739837556E+004  0.313135601333841E+000 
      4.46000000 -0.172959628491168E+004  0.314249065212155E+000 
      4.48000000 -0.172959304724849E+004  0.317486728402289E+000 
      4.50000000 -0.172958759013558E+004  0.322943841310632E+000 
      4.52000000 -0.172957983753837E+004  0.330696438522942E+000 
      4.54000000 -0.172956973405702E+004  0.340799919879684E+000 
      4.56000000 -0.172955724609539E+004  0.353287881507511E+000 
      4.58000000 -0.172954236275490E+004  0.368171221992453E+000 
      4.60000000 -0.172952509642985E+004  0.385437547050156E+000 
      4.62000000 -0.172950548308298E+004  0.405050893915105E+000 
      4.64000000 -0.172948358218275E+004  0.426951794141583E+000 
      4.66000000 -0.172945947628594E+004  0.451057690955145E+000 
      4.68000000 -0.172943327025314E+004  0.477263723757282E+000 
      4.70000000 -0.172940509008823E+004  0.505443888669357E+000 
      4.72000000 -0.172937508139754E+004  0.535452579356350E+000 
      4.74000000 -0.172934340747056E+004  0.567126506333425E+000 
      4.76000000 -0.172931024699052E+004  0.600286986373652E+000 
      4.78000000 -0.172927579139066E+004  0.634742586232699E+000 
      4.80000000 -0.172924024188107E+004  0.670292095824511E+000 
      4.82000000 -0.172920380618196E+004  0.706727794934462E+000 
      4.84000000 -0.172916669500804E+004  0.743838968851120E+000 
      4.86000000 -0.172912911836005E+004  0.781415616842683E+000 
      4.88000000 -0.172909128169143E+004  0.819252285464039E+000 
      4.90000000 -0.172905338202937E+004  0.857151947526174E+000 
      4.92000000 -0.172901560413902E+004  0.894929837875013E+000 
      4.94000000 -0.172897811682849E+004  0.932417148406335E+000 
      4.96000000 -0.172894106949981E+004  0.969464477088789E+000 
      4.98000000 -0.172890458905532E+004  0.100594492157057E+001 
      5.00000000 -0.172886877727160E+004  0.104175670530011E+001 
      5.02000000 -0.172883370874919E+004  0.107682522770677E+001 
      5.04000000 -0.172879942954181E+004  0.111110443508439E+001 
      5.06000000 -0.172876595655739E+004  0.114457741950999E+001 
      5.08000000 -0.172873327780898E+004  0.117725616791506E+001 
      5.10000000 -0.172870135357224E+004  0.120918040465904E+001 
      5.12000000 -0.172867011848235E+004  0.124041549454737E+001 
      5.14000000 -0.172863948457441E+004  0.127104940248334E+001 
      5.16000000 -0.172860934523894E+004  0.130118873795443E+001 
      5.18000000 -0.172857958002813E+004  0.133095394876327E+001 
      5.20000000 -0.172855006021223E+004  0.136047376466174E+001 
      5.22000000 -0.172852065494720E+004  0.138987902969294E+001 
      5.24000000 -0.172849123787934E+004  0.141929609755093E+001 
      5.26000000 -0.172846169397977E+004  0.144883999712568E+001 
      5.28000000 -0.172843192637369E+004  0.147860760320558E+001 
      5.30000000 -0.172840186290798E+004  0.150867106891319E+001 
      5.32000000 -0.172837146218764E+004  0.153907178925686E+001 
      5.34000000 -0.172834071880956E+004  0.156981516733316E+001 
      5.36000000 -0.172830966753268E+004  0.160086644421085E+001 
      5.38000000 -0.172827838614411E+004  0.163214783279010E+001 
      5.40000000 -0.172824699681635E+004  0.166353716054768E+001 
      5.42000000 -0.172821566579665E+004  0.169486818024455E+001 
      5.44000000 -0.172818460132971E+004  0.172593264718328E+001 
      5.46000000 -0.172815404978387E+004  0.175648419302859E+001 
      5.48000000 -0.172812429002592E+004  0.178624395097510E+001 
      5.50000000 -0.172809562617068E+004  0.181490780621282E+001 
      5.52000000 -0.172806837891165E+004  0.184215506524959E+001 
      5.54000000 -0.172804287571694E+004  0.186765825995114E+001 
      5.56000000 -0.172801944024212E+004  0.189109373477681E+001 
      5.58000000 -0.172799838136859E+004  0.191215260830660E+001 
      5.60000000 -0.172797998231395E+004  0.193055166294040E+001 
      5.62000000 -0.172796449027986E+004  0.194604369703402E+001 
      5.64000000 -0.172795210709596E+004  0.195842688093348E+001 
      5.66000000 -0.172794298128932E+004  0.196755268757773E+001 
      5.68000000 -0.172793720195257E+004  0.197333202432500E+001 
      5.70000000 -0.172793479470749E+004  0.197573926940789E+001 
      5.72000000 -0.172793571996136E+004  0.197481401553208E+001 
      5.74000000 -0.172793987354223E+004  0.197066043466851E+001 
      5.76000000 -0.172794708967913E+004  0.196344429776497E+001 
      5.78000000 -0.172795714617363E+004  0.195338780326423E+001 
      5.80000000 -0.172796977149598E+004  0.194076248091486E+001 
      5.82000000 -0.172798465344279E+004  0.192588053411003E+001 
      5.84000000 -0.172800144891714E+004  0.190908505975126E+001 
      5.86000000 -0.172801979434359E+004  0.189073963330080E+001 
      5.88000000 -0.172803931621213E+004  0.187121776476131E+001 
      5.90000000 -0.172805964125866E+004  0.185089271823983E+001 
      5.92000000 -0.172808040583137E+004  0.183012814552215E+001 
      5.94000000 -0.172810126406300E+004  0.180926991389673E+001 
      5.96000000 -0.172812189455821E+004  0.178863941868147E+001 
      5.98000000 -0.172814200541008E+004  0.176852856681666E+001 
      6.00000000 -0.172816133746897E+004  0.174919650793028E+001 
