# Real time calculation: 
# Eall: Total energy
# Eall0: Initial total energy
# 1:Time[fs] 2:Eall[eV] 3:Eall-Eall0[eV] 
      0.00000000 -0.691634879069755E+004  0.000000000000000E+000 
      0.02000000 -0.691634879070336E+004 -0.580973632212363E-008 
      0.04000000 -0.691634879070345E+004 -0.589558306490261E-008 
      0.06000000 -0.691634879070177E+004 -0.421886470143562E-008 
      0.08000000 -0.691634879069482E+004  0.273472146366203E-008 
      0.10000000 -0.691634879067547E+004  0.220819477461760E-007 
      0.12000000 -0.691634879063149E+004  0.660648690240208E-007 
      0.14000000 -0.691634879054388E+004  0.153672630121092E-006 
      0.16000000 -0.691634879038522E+004  0.312336745628630E-006 
      0.18000000 -0.691634879011798E+004  0.579575335717368E-006 
      0.20000000 -0.691634878969297E+004  0.100458013078782E-005 
      0.22000000 -0.691634878904783E+004  0.164972226974228E-005 
      0.24000000 -0.691634878810567E+004  0.259188640477122E-005 
      0.26000000 -0.691634878677397E+004  0.392358129525092E-005 
      0.28000000 -0.691634878494372E+004  0.575383462469293E-005 
      0.30000000 -0.691634878248875E+004  0.820880166188430E-005 
      0.32000000 -0.691634877926548E+004  0.114320699781548E-004 
      0.34000000 -0.691634877511287E+004  0.155846795556230E-004 
      0.36000000 -0.691634876985270E+004  0.208448528726624E-004 
      0.38000000 -0.691634876329011E+004  0.274074481142879E-004 
      0.40000000 -0.691634875521446E+004  0.354830960643635E-004 
      0.42000000 -0.691634874540040E+004  0.452971482896542E-004 
      0.44000000 -0.691634873360912E+004  0.570884366157240E-004 
      0.46000000 -0.691634871958973E+004  0.711078191460663E-004 
      0.48000000 -0.691634870308100E+004  0.876165499473859E-004 
      0.50000000 -0.691634868381303E+004  0.106884523445039E-003 
      0.52000000 -0.691634866150908E+004  0.129188472414830E-003 
      0.54000000 -0.691634863588753E+004  0.154810026763870E-003 
      0.56000000 -0.691634860666382E+004  0.184033732094951E-003 
      0.58000000 -0.691634857355259E+004  0.217144964636103E-003 
      0.60000000 -0.691634853626972E+004  0.254427829155493E-003 
      0.62000000 -0.691634849453443E+004  0.296163121841416E-003 
      0.64000000 -0.691634844807113E+004  0.342626420018921E-003 
      0.66000000 -0.691634839661131E+004  0.394086239151721E-003 
      0.68000000 -0.691634833989515E+004  0.450802407167839E-003 
      0.70000000 -0.691634827767295E+004  0.513024604291587E-003 
      0.72000000 -0.691634820970640E+004  0.580991151135042E-003 
      0.74000000 -0.691634813576956E+004  0.654927990138046E-003 
      0.76000000 -0.691634805564957E+004  0.735047986419956E-003 
      0.78000000 -0.691634796914714E+004  0.821550408058827E-003 
      0.80000000 -0.691634787607701E+004  0.914620543261340E-003 
      0.82000000 -0.691634777626805E+004  0.101442950701428E-002 
      0.84000000 -0.691634766956326E+004  0.112113429367534E-002 
      0.86000000 -0.691634755581939E+004  0.123487815825639E-002 
      0.88000000 -0.691634743490646E+004  0.135579109360765E-002 
      0.90000000 -0.691634730670697E+004  0.148399058370348E-002 
      0.92000000 -0.691634717111499E+004  0.161958256574465E-002 
      0.94000000 -0.691634702803494E+004  0.176266261499807E-002 
      0.96000000 -0.691634687738029E+004  0.191331726575385E-002 
      0.98000000 -0.691634671907205E+004  0.207162550242911E-002 
      1.00000000 -0.691634655303720E+004  0.223766035662673E-002 
      1.02000000 -0.691634637920705E+004  0.241149050032718E-002 
      1.04000000 -0.691634619751564E+004  0.259318190945916E-002 
      1.06000000 -0.691634600789811E+004  0.278279944781070E-002 
      1.08000000 -0.691634581028918E+004  0.298040837282740E-002 
      1.10000000 -0.691634560462171E+004  0.318607584605108E-002 
      1.12000000 -0.691634539082526E+004  0.339987229584017E-002 
      1.14000000 -0.691634516882492E+004  0.362187263623874E-002 
      1.16000000 -0.691634493854020E+004  0.385215734972824E-002 
      1.18000000 -0.691634469988393E+004  0.409081361947642E-002 
      1.20000000 -0.691634445276133E+004  0.433793622183408E-002 
      1.22000000 -0.691634419706932E+004  0.459362822780356E-002 
      1.24000000 -0.691634393269605E+004  0.485800150806499E-002 
      1.26000000 -0.691634365952051E+004  0.513117704542755E-002 
      1.28000000 -0.691634337741250E+004  0.541328505006520E-002 
      1.30000000 -0.691634308623263E+004  0.570446491930014E-002 
      1.32000000 -0.691634278583256E+004  0.600486498934335E-002 
      1.34000000 -0.691634247605544E+004  0.631464211766177E-002 
      1.36000000 -0.691634215673645E+004  0.663396110679970E-002 
      1.38000000 -0.691634182770369E+004  0.696299386292608E-002 
      1.40000000 -0.691634148877909E+004  0.730191846544139E-002 
      1.42000000 -0.691634113977952E+004  0.765091803782226E-002 
      1.44000000 -0.691634078051809E+004  0.801017946146719E-002 
      1.46000000 -0.691634041080574E+004  0.837989181344044E-002 
      1.48000000 -0.691634003045280E+004  0.876024475626562E-002 
      1.50000000 -0.691633963927079E+004  0.915142676453300E-002 
      1.52000000 -0.691633923707421E+004  0.955362333835924E-002 
      1.54000000 -0.691633882368234E+004  0.996701521530027E-002 
      1.56000000 -0.691633839892092E+004  0.103917766356283E-001 
      1.58000000 -0.691633796262406E+004  0.108280734923734E-001 
      1.60000000 -0.691633751463613E+004  0.112760614225866E-001 
      1.62000000 -0.691633705481381E+004  0.117358837416044E-001 
      1.64000000 -0.691633658302797E+004  0.122076695869034E-001 
      1.66000000 -0.691633609916539E+004  0.126915321617215E-001 
      1.68000000 -0.691633560313062E+004  0.131875669353708E-001 
      1.70000000 -0.691633509484764E+004  0.136958499116074E-001 
      1.72000000 -0.691633457426156E+004  0.142164359944507E-001 
      1.74000000 -0.691633404134011E+004  0.147493574444876E-001 
      1.76000000 -0.691633349607493E+004  0.152946226197881E-001 
      1.78000000 -0.691633293848280E+004  0.158522147516218E-001 
      1.80000000 -0.691633236860661E+004  0.164220909413657E-001 
      1.82000000 -0.691633178651599E+004  0.170041815649915E-001 
      1.84000000 -0.691633119230765E+004  0.175983898987419E-001 
      1.86000000 -0.691633058610570E+004  0.182045918577242E-001 
      1.88000000 -0.691632996806152E+004  0.188226360314858E-001 
      1.90000000 -0.691632933835370E+004  0.194523438479744E-001 
      1.92000000 -0.691632869718763E+004  0.200935099262049E-001 
      1.94000000 -0.691632804479480E+004  0.207459027491132E-001 
      1.96000000 -0.691632738143207E+004  0.214092654856731E-001 
      1.98000000 -0.691632670738047E+004  0.220833170806095E-001 
      2.00000000 -0.691632602294400E+004  0.227677535490593E-001 
      2.02000000 -0.691632532844818E+004  0.234622493771885E-001 
      2.04000000 -0.691632462423844E+004  0.241664591146107E-001 
      2.06000000 -0.691632391067834E+004  0.248800192127445E-001 
      2.08000000 -0.691632318814771E+004  0.256025498376495E-001 
      2.10000000 -0.691632245704085E+004  0.263336567060634E-001 
      2.12000000 -0.691632171776454E+004  0.270729330111540E-001 
      2.14000000 -0.691632097073610E+004  0.278199614534514E-001 
      2.16000000 -0.691632021638141E+004  0.285743161387574E-001 
      2.18000000 -0.691631945513306E+004  0.293355644969359E-001 
      2.20000000 -0.691631868742842E+004  0.301032691334188E-001 
      2.22000000 -0.691631791370799E+004  0.308769895623817E-001 
      2.24000000 -0.691631713441373E+004  0.316562838223643E-001 
      2.26000000 -0.691631634998760E+004  0.324407099557734E-001 
      2.28000000 -0.691631556087022E+004  0.332298273321600E-001 
      2.30000000 -0.691631476749961E+004  0.340231979413340E-001 
      2.32000000 -0.691631397031020E+004  0.348203873492799E-001 
      2.34000000 -0.691631316973190E+004  0.356209656486575E-001 
      2.36000000 -0.691631236618938E+004  0.364245081718716E-001 
      2.38000000 -0.691631156010149E+004  0.372305960602898E-001 
      2.40000000 -0.691631075188098E+004  0.380388165774673E-001 
      2.42000000 -0.691630994193433E+004  0.388487632267027E-001 
      2.44000000 -0.691630913066195E+004  0.396600356017732E-001 
      2.46000000 -0.691630831845850E+004  0.404722390559214E-001 
      2.48000000 -0.691630750571325E+004  0.412849843051045E-001 
      2.50000000 -0.691630669281079E+004  0.420978867582350E-001 
      2.52000000 -0.691630588013190E+004  0.429105656540731E-001 
      2.54000000 -0.691630506805451E+004  0.437226430473066E-001 
      2.56000000 -0.691630425695486E+004  0.445337426940902E-001 
      2.58000000 -0.691630344720870E+004  0.453434888478712E-001 
      2.60000000 -0.691630263919261E+004  0.461515049469395E-001 
      2.62000000 -0.691630183328526E+004  0.469574122950173E-001 
      2.64000000 -0.691630102986892E+004  0.477608286358937E-001 
      2.66000000 -0.691630022933060E+004  0.485613669531176E-001 
      2.68000000 -0.691629943206333E+004  0.493586342225124E-001 
      2.70000000 -0.691629863846729E+004  0.501522302598193E-001 
      2.72000000 -0.691629784895095E+004  0.509417466031424E-001 
      2.74000000 -0.691629706393209E+004  0.517267654588132E-001 
      2.76000000 -0.691629628383876E+004  0.525068587918785E-001 
      2.78000000 -0.691629550911000E+004  0.532815875519335E-001 
      2.80000000 -0.691629474019655E+004  0.540505009994950E-001 
      2.82000000 -0.691629397756120E+004  0.548131363517875E-001 
      2.84000000 -0.691629322167905E+004  0.555690185043207E-001 
      2.86000000 -0.691629247303767E+004  0.563176598847187E-001 
      2.88000000 -0.691629173213693E+004  0.570585606205458E-001 
      2.90000000 -0.691629099948875E+004  0.577912088022613E-001 
      2.92000000 -0.691629027561653E+004  0.585150810222743E-001 
      2.94000000 -0.691628956105444E+004  0.592296431135357E-001 
      2.96000000 -0.691628885634645E+004  0.599343510992659E-001 
      2.98000000 -0.691628816204529E+004  0.606286522617852E-001 
      3.00000000 -0.691628747871116E+004  0.613119863892257E-001 
      3.02000000 -0.691628680691035E+004  0.619837872063094E-001 
      3.04000000 -0.691628614721350E+004  0.626434840564812E-001 
      3.06000000 -0.691628550019387E+004  0.632905036876755E-001 
      3.08000000 -0.691628486642532E+004  0.639242722352983E-001 
      3.10000000 -0.691628424648037E+004  0.645442171835551E-001 
      3.12000000 -0.691628364092802E+004  0.651497695286338E-001 
      3.14000000 -0.691628305033160E+004  0.657403659573561E-001 
      3.16000000 -0.691628247524661E+004  0.663154509438484E-001 
      3.18000000 -0.691628191621855E+004  0.668744790016660E-001 
      3.20000000 -0.691628137378075E+004  0.674169167990252E-001 
      3.22000000 -0.691628084845239E+004  0.679422451588009E-001 
      3.24000000 -0.691628034073636E+004  0.684499611977345E-001 
      3.26000000 -0.691627985111707E+004  0.689395804865235E-001 
      3.28000000 -0.691627938005824E+004  0.694106393174129E-001 
      3.30000000 -0.691627892800003E+004  0.698626975185763E-001 
      3.32000000 -0.691627849535520E+004  0.702953423497019E-001 
      3.34000000 -0.691627808250315E+004  0.707081944068565E-001 
      3.36000000 -0.691627768978156E+004  0.711009159921557E-001 
      3.38000000 -0.691627731747404E+004  0.714732235089512E-001 
      3.40000000 -0.691627696579269E+004  0.718249048662912E-001 
      3.42000000 -0.691627663485400E+004  0.721558435546778E-001 
      3.44000000 -0.691627632464708E+004  0.724660504743273E-001 
      3.46000000 -0.691627603499289E+004  0.727557046605551E-001 
      3.48000000 -0.691627576549395E+004  0.730252036000215E-001 
      3.50000000 -0.691627551547456E+004  0.732752229885721E-001 
      3.52000000 -0.691627528391216E+004  0.735067853931638E-001 
      3.54000000 -0.691627506936134E+004  0.737213362177247E-001 
      3.56000000 -0.691627486987342E+004  0.739208241353657E-001 
      3.58000000 -0.691627468291530E+004  0.741077822506746E-001 
      3.60000000 -0.691627450529261E+004  0.742854049441518E-001 
      3.62000000 -0.691627433308298E+004  0.744576145697163E-001 
      3.64000000 -0.691627416158664E+004  0.746291109148034E-001 
      3.66000000 -0.691627398530146E+004  0.748053960974666E-001 
      3.68000000 -0.691627379793041E+004  0.749927671456623E-001 
      3.70000000 -0.691627359242935E+004  0.751982682030417E-001 
      3.72000000 -0.691627336110214E+004  0.754295954099865E-001 
      3.74000000 -0.691627309574875E+004  0.756949488025102E-001 
      3.76000000 -0.691627278787123E+004  0.760028263249320E-001 
      3.78000000 -0.691627242893911E+004  0.763617584458853E-001 
      3.80000000 -0.691627201071355E+004  0.767799840025647E-001 
      3.82000000 -0.691627152562615E+004  0.772650714062263E-001 
      3.84000000 -0.691627096720449E+004  0.778234930588941E-001 
      3.86000000 -0.691627033053244E+004  0.784601651111842E-001 
      3.88000000 -0.691626961272909E+004  0.791779684637751E-001 
      3.90000000 -0.691626881342624E+004  0.799772713094797E-001 
      3.92000000 -0.691626793522011E+004  0.808554774455808E-001 
      3.94000000 -0.691626698406990E+004  0.818066276549220E-001 
      3.96000000 -0.691626596961305E+004  0.828210844998702E-001 
      3.98000000 -0.691626490536492E+004  0.838853326342842E-001 
      4.00000000 -0.691626380877076E+004  0.849819267919898E-001 
      4.02000000 -0.691626270107788E+004  0.860896196690375E-001 
      4.04000000 -0.691626160699840E+004  0.871836991552298E-001 
      4.06000000 -0.691626055413646E+004  0.882365610904419E-001 
      4.08000000 -0.691625957215938E+004  0.892185381690604E-001 
      4.10000000 -0.691625869169862E+004  0.900989989321964E-001 
      4.12000000 -0.691625794297544E+004  0.908477221175797E-001 
      4.14000000 -0.691625735415542E+004  0.914365421374417E-001 
      4.16000000 -0.691625694944742E+004  0.918412501283389E-001 
      4.18000000 -0.691625674697396E+004  0.920437235915177E-001 
      4.20000000 -0.691625675645247E+004  0.920342450832742E-001 
      4.22000000 -0.691625697673991E+004  0.918139576437077E-001 
      4.24000000 -0.691625739330453E+004  0.913973930204186E-001 
      4.26000000 -0.691625797570075E+004  0.908149968024968E-001 
      4.28000000 -0.691625867513273E+004  0.901155648183669E-001 
      4.30000000 -0.691625942220079E+004  0.893684967597312E-001 
      4.32000000 -0.691626012493009E+004  0.886657674594424E-001 
      4.34000000 -0.691626066718499E+004  0.881235125643691E-001 
      4.36000000 -0.691626090757222E+004  0.878831253334903E-001 
      4.38000000 -0.691626067893248E+004  0.881117650702562E-001 
      4.40000000 -0.691625978851303E+004  0.890021845195910E-001 
      4.42000000 -0.691625801890341E+004  0.907717941445843E-001 
      4.44000000 -0.691625512980130E+004  0.936608962528046E-001 
      4.46000000 -0.691625086065769E+004  0.979300398648060E-001 
      4.48000000 -0.691624493422840E+004  0.103856469151626E+000 
      4.50000000 -0.691623706103485E+004  0.111729662702687E+000 
      4.52000000 -0.691622694470927E+004  0.121845988283770E+000 
      4.54000000 -0.691621428817027E+004  0.134502527282202E+000 
      4.56000000 -0.691619880054485E+004  0.149990152703008E+000 
      4.58000000 -0.691618020472179E+004  0.168585975763050E+000 
      4.60000000 -0.691615824539162E+004  0.190545305937532E+000 
      4.62000000 -0.691613269739948E+004  0.216093298074248E+000 
      4.64000000 -0.691610337421176E+004  0.245416485797244E+000 
      4.66000000 -0.691607013627473E+004  0.278654422817521E+000 
      4.68000000 -0.691603289902617E+004  0.315891671380114E+000 
      4.70000000 -0.691599164030842E+004  0.357150389129488E+000 
      4.72000000 -0.691594640692631E+004  0.402383771238961E+000 
      4.74000000 -0.691589732009496E+004  0.451470602594193E+000 
      4.76000000 -0.691584457953085E+004  0.504211166700924E+000 
      4.78000000 -0.691578846595820E+004  0.560324739356058E+000 
      4.80000000 -0.691572934182768E+004  0.619448869869132E+000 
      4.82000000 -0.691566765007839E+004  0.681140619162599E+000 
      4.84000000 -0.691560391081548E+004  0.744879882077895E+000 
      4.86000000 -0.691553871582460E+004  0.810074872952918E+000 
      4.88000000 -0.691547272089763E+004  0.876069799927171E+000 
      4.90000000 -0.691540663600435E+004  0.942154693200464E+000 
      4.92000000 -0.691534121340712E+004  0.100757729043093E+001 
      4.94000000 -0.691527723387689E+004  0.107155682065926E+001 
      4.96000000 -0.691521549123379E+004  0.113329946376185E+001 
      4.98000000 -0.691515677549357E+004  0.119201520398080E+001 
      5.00000000 -0.691510185495643E+004  0.124693574112056E+001 
      5.02000000 -0.691505145762143E+004  0.129733307612721E+001 
      5.04000000 -0.691500625234866E+004  0.134253834889090E+001 
      5.06000000 -0.691496683021911E+004  0.138196047844302E+001 
      5.08000000 -0.691493368655551E+004  0.141510414203905E+001 
      5.10000000 -0.691490720407307E+004  0.144158662448129E+001 
      5.12000000 -0.691488763761639E+004  0.146115308116314E+001 
      5.14000000 -0.691487510091495E+004  0.147368978259821E+001 
      5.16000000 -0.691486955575344E+004  0.147923494411214E+001 
      5.18000000 -0.691487080390613E+004  0.147798679142177E+001 
      5.20000000 -0.691487848212661E+004  0.147030857094342E+001 
      5.22000000 -0.691489206041904E+004  0.145673027851497E+001 
      5.24000000 -0.691491084374744E+004  0.143794695011536E+001 
      5.26000000 -0.691493397726577E+004  0.141481343177780E+001 
      5.28000000 -0.691496045507656E+004  0.138833562099543E+001 
      5.30000000 -0.691498913245338E+004  0.135965824417298E+001 
      5.32000000 -0.691501874139297E+004  0.133004930457826E+001 
      5.34000000 -0.691504790929557E+004  0.130088140198575E+001 
      5.36000000 -0.691507518051281E+004  0.127361018474739E+001 
      5.38000000 -0.691509904044719E+004  0.124975025036676E+001 
      5.40000000 -0.691511794183847E+004  0.123084885908101E+001 
      5.42000000 -0.691513033282831E+004  0.121845786924125E+001 
      5.44000000 -0.691513468635575E+004  0.121410434180004E+001 
      5.46000000 -0.691512953040102E+004  0.121926029653639E+001 
      5.48000000 -0.691511347856342E+004  0.123531213413353E+001 
      5.50000000 -0.691508526043108E+004  0.126353026647680E+001 
      5.52000000 -0.691504375117469E+004  0.130503952286532E+001 
      5.54000000 -0.691498799977560E+004  0.136079092195411E+001 
      5.56000000 -0.691491725528227E+004  0.143153541527796E+001 
      5.58000000 -0.691483099047927E+004  0.151780021828594E+001 
      5.60000000 -0.691472892235101E+004  0.161986834654750E+001 
      5.62000000 -0.691461102873372E+004  0.173776196383005E+001 
      5.64000000 -0.691447756057440E+004  0.187123012315476E+001 
      5.66000000 -0.691432904925693E+004  0.201974144062232E+001 
      5.68000000 -0.691416630851914E+004  0.218248217841346E+001 
      5.70000000 -0.691399043056864E+004  0.235836012891165E+001 
      5.72000000 -0.691380277611383E+004  0.254601458371876E+001 
      5.74000000 -0.691360495815586E+004  0.274383254169025E+001 
      5.76000000 -0.691339881954261E+004  0.294997115494269E+001 
      5.78000000 -0.691318640445700E+004  0.316238624055707E+001 
      5.80000000 -0.691296992419734E+004  0.337886650020876E+001 
      5.82000000 -0.691275171780569E+004  0.359707289186815E+001 
      5.84000000 -0.691253420829495E+004  0.381458240260002E+001 
      5.86000000 -0.691231985541792E+004  0.402893527962936E+001 
      5.88000000 -0.691211110609039E+004  0.423768460716327E+001 
      5.90000000 -0.691191034373309E+004  0.443844696446797E+001 
      5.92000000 -0.691171983790495E+004  0.462895279260760E+001 
      5.94000000 -0.691154169566512E+004  0.480709503243215E+001 
      5.96000000 -0.691137781611944E+004  0.497097457811614E+001 
      5.98000000 -0.691122984956014E+004  0.511894113741153E+001 
      6.00000000 -0.691109916250387E+004  0.524962819368194E+001 
