# Real time calculation: 
# Eall: Total energy
# Eall0: Initial total energy
# 1:Time[fs] 2:Eall[eV] 3:Eall-Eall0[eV] 
      0.00000000 -0.691252588574094E+004  0.000000000000000E+000 
      0.02000000 -0.691252588574245E+004 -0.151198542462083E-008 
      0.04000000 -0.691252588573452E+004  0.642303782684195E-008 
      0.06000000 -0.691252588568452E+004  0.564152310992156E-007 
      0.08000000 -0.691252588550338E+004  0.237562685879978E-006 
      0.10000000 -0.691252588501273E+004  0.728211623595426E-006 
      0.12000000 -0.691252588390637E+004  0.183457196197964E-005 
      0.14000000 -0.691252588170910E+004  0.403184177183601E-005 
      0.16000000 -0.691252587773464E+004  0.800630311676211E-005 
      0.18000000 -0.691252587104411E+004  0.146968301133744E-004 
      0.20000000 -0.691252586040571E+004  0.253352314866559E-004 
      0.22000000 -0.691252584425659E+004  0.414843502824744E-004 
      0.24000000 -0.691252582066872E+004  0.650722215904793E-004 
      0.26000000 -0.691252578731961E+004  0.984213269485376E-004 
      0.28000000 -0.691252574146872E+004  0.144272216118091E-003 
      0.30000000 -0.691252567994039E+004  0.205800548822690E-003 
      0.32000000 -0.691252559911379E+004  0.286627144230656E-003 
      0.34000000 -0.691252549491978E+004  0.390821158057958E-003 
      0.36000000 -0.691252536284457E+004  0.522896365636271E-003 
      0.38000000 -0.691252519794064E+004  0.687800298819739E-003 
      0.40000000 -0.691252499484430E+004  0.890896640442158E-003 
      0.42000000 -0.691252474779814E+004  0.113794279588868E-002 
      0.44000000 -0.691252445067824E+004  0.143506270056001E-002 
      0.46000000 -0.691252409702669E+004  0.178871425302110E-002 
      0.48000000 -0.691252368008807E+004  0.220565286725840E-002 
      0.50000000 -0.691252319284874E+004  0.269289219354137E-002 
      0.52000000 -0.691252262807849E+004  0.325766244717611E-002 
      0.54000000 -0.691252197837436E+004  0.390736658026289E-002 
      0.56000000 -0.691252123620677E+004  0.464953417348793E-002 
      0.58000000 -0.691252039396764E+004  0.549177330084934E-002 
      0.60000000 -0.691251944401941E+004  0.644172153127522E-002 
      0.62000000 -0.691251837874300E+004  0.750699794106783E-002 
      0.64000000 -0.691251719058381E+004  0.869515712943848E-002 
      0.66000000 -0.691251587209557E+004  0.100136453639696E-001 
      0.68000000 -0.691251441598085E+004  0.114697600864742E-001 
      0.70000000 -0.691251281512706E+004  0.130706138766989E-001 
      0.72000000 -0.691251106263796E+004  0.148231029805982E-001 
      0.74000000 -0.691250915186016E+004  0.167338807790512E-001 
      0.76000000 -0.691250707640390E+004  0.188093370338310E-001 
      0.78000000 -0.691250483015945E+004  0.210555814854635E-001 
      0.80000000 -0.691250240731070E+004  0.234784302337572E-001 
      0.82000000 -0.691249980234456E+004  0.260833963781884E-001 
      0.84000000 -0.691249701005410E+004  0.288756868338377E-001 
      0.86000000 -0.691249402553637E+004  0.318602045734594E-001 
      0.88000000 -0.691249084418617E+004  0.350415547713241E-001 
      0.90000000 -0.691248746168489E+004  0.384240560452748E-001 
      0.92000000 -0.691248387398321E+004  0.420117577266172E-001 
      0.94000000 -0.691248007727961E+004  0.458084613295387E-001 
      0.96000000 -0.691247606799461E+004  0.498177463267869E-001 
      0.98000000 -0.691247184274108E+004  0.540429998572825E-001 
      1.00000000 -0.691246739829214E+004  0.584874487941315E-001 
      1.02000000 -0.691246273154725E+004  0.631541936888915E-001 
      1.04000000 -0.691245783949678E+004  0.680462441574442E-001 
      1.06000000 -0.691245271918693E+004  0.731665540060079E-001 
      1.08000000 -0.691244736768535E+004  0.785180555876223E-001 
      1.10000000 -0.691244178204716E+004  0.841036937827647E-001 
      1.12000000 -0.691243595928269E+004  0.899264582529761E-001 
      1.14000000 -0.691242989632777E+004  0.959894131709034E-001 
      1.16000000 -0.691242359001495E+004  0.102295725990559E+000 
      1.18000000 -0.691241703704464E+004  0.108848696294920E+000 
      1.20000000 -0.691241023395929E+004  0.115651781652812E+000 
      1.22000000 -0.691240317712176E+004  0.122708619176497E+000 
      1.24000000 -0.691239586269730E+004  0.130023043633787E+000 
      1.26000000 -0.691238828663891E+004  0.137599102024205E+000 
      1.28000000 -0.691238044467666E+004  0.145441064280436E+000 
      1.30000000 -0.691237233231039E+004  0.153553430546742E+000 
      1.32000000 -0.691236394480606E+004  0.161940934877330E+000 
      1.34000000 -0.691235527719554E+004  0.170608545394897E+000 
      1.36000000 -0.691234632428136E+004  0.179561459583756E+000 
      1.38000000 -0.691233708064573E+004  0.188805095213284E+000 
      1.40000000 -0.691232754066306E+004  0.198345077877765E+000 
      1.42000000 -0.691231769851595E+004  0.208187224988684E+000 
      1.44000000 -0.691230754821595E+004  0.218337524985894E+000 
      1.46000000 -0.691229708362901E+004  0.228802111930842E+000 
      1.48000000 -0.691228629850426E+004  0.239587236676767E+000 
      1.50000000 -0.691227518650548E+004  0.250699235461929E+000 
      1.52000000 -0.691226374124434E+004  0.262144496600308E+000 
      1.54000000 -0.691225195631409E+004  0.273929426848240E+000 
      1.56000000 -0.691223982532352E+004  0.286060417416838E+000 
      1.58000000 -0.691222734193383E+004  0.298543807109712E+000 
      1.60000000 -0.691221449989828E+004  0.311385842653268E+000 
      1.62000000 -0.691220129310319E+004  0.324592637749356E+000 
      1.64000000 -0.691218771560771E+004  0.338170133224594E+000 
      1.66000000 -0.691217376168288E+004  0.352124058056723E+000 
      1.68000000 -0.691215942585050E+004  0.366459890434208E+000 
      1.70000000 -0.691214470292211E+004  0.381182818825909E+000 
      1.72000000 -0.691212958803675E+004  0.396297704187626E+000 
      1.74000000 -0.691211407669512E+004  0.411809045813660E+000 
      1.76000000 -0.691209816479045E+004  0.427720950491536E+000 
      1.78000000 -0.691208184863721E+004  0.444037103724011E+000 
      1.80000000 -0.691206512499473E+004  0.460760746204741E+000 
      1.82000000 -0.691204799108366E+004  0.477894657276163E+000 
      1.84000000 -0.691203044459844E+004  0.495441142494084E+000 
      1.86000000 -0.691201248371568E+004  0.513402025254149E+000 
      1.88000000 -0.691199410709768E+004  0.531778643256652E+000 
      1.90000000 -0.691197531389152E+004  0.550571849419921E+000 
      1.92000000 -0.691195610372416E+004  0.569782016774347E+000 
      1.94000000 -0.691193647669266E+004  0.589409048279854E+000 
      1.96000000 -0.691191643334842E+004  0.609452392517293E+000 
      1.98000000 -0.691189597467739E+004  0.629911063543783E+000 
      2.00000000 -0.691187510207661E+004  0.650783664330421E+000 
      2.02000000 -0.691185381732612E+004  0.672068414818701E+000 
      2.04000000 -0.691183212255765E+004  0.693763183289375E+000 
      2.06000000 -0.691181002022033E+004  0.715865520605251E+000 
      2.08000000 -0.691178751304513E+004  0.738372695808199E+000 
      2.10000000 -0.691176460400750E+004  0.761281733435422E+000 
      2.12000000 -0.691174129628917E+004  0.784589451767652E+000 
      2.14000000 -0.691171759323914E+004  0.808292501800485E+000 
      2.16000000 -0.691169349833521E+004  0.832387405725371E+000 
      2.18000000 -0.691166901514672E+004  0.856870594218814E+000 
      2.20000000 -0.691164414729932E+004  0.881738441614784E+000 
      2.22000000 -0.691161889844214E+004  0.906987298797944E+000 
      2.24000000 -0.691159327221822E+004  0.932613522714819E+000 
      2.26000000 -0.691156727223748E+004  0.958613503454192E+000 
      2.28000000 -0.691154090205362E+004  0.984983687317445E+000 
      2.30000000 -0.691151416514438E+004  0.101172059655635E+001 
      2.32000000 -0.691148706489591E+004  0.103882084502426E+001 
      2.34000000 -0.691145960459112E+004  0.106628114982031E+001 
      2.36000000 -0.691143178740185E+004  0.109409833909063E+001 
      2.38000000 -0.691140361638464E+004  0.112226935629909E+001 
      2.40000000 -0.691137509448167E+004  0.115079125926975E+001 
      2.42000000 -0.691134622452627E+004  0.117966121466800E+001 
      2.44000000 -0.691131700925382E+004  0.120887648711963E+001 
      2.46000000 -0.691128745131663E+004  0.123843442431142E+001 
      2.48000000 -0.691125755330191E+004  0.126833243903211E+001 
      2.50000000 -0.691122731775403E+004  0.129856798690568E+001 
      2.52000000 -0.691119674720045E+004  0.132913854048646E+001 
      2.54000000 -0.691116584418038E+004  0.136004156055851E+001 
      2.56000000 -0.691113461127574E+004  0.139127446520061E+001 
      2.58000000 -0.691110305114338E+004  0.142283459755351E+001 
      2.60000000 -0.691107116654819E+004  0.145471919274653E+001 
      2.62000000 -0.691103896039704E+004  0.148692534389836E+001 
      2.64000000 -0.691100643577215E+004  0.151944996878843E+001 
      2.66000000 -0.691097359596326E+004  0.155228977768140E+001 
      2.68000000 -0.691094044449660E+004  0.158544124433413E+001 
      2.70000000 -0.691090698516221E+004  0.161890057872739E+001 
      2.72000000 -0.691087322203832E+004  0.165266370261500E+001 
      2.74000000 -0.691083915951375E+004  0.168672622718663E+001 
      2.76000000 -0.691080480230708E+004  0.172108343386215E+001 
      2.78000000 -0.691077015548303E+004  0.175573025790648E+001 
      2.80000000 -0.691073522446536E+004  0.179066127557885E+001 
      2.82000000 -0.691070001504587E+004  0.182587069506559E+001 
      2.84000000 -0.691066453338832E+004  0.186135235262238E+001 
      2.86000000 -0.691062878602749E+004  0.189709971344822E+001 
      2.88000000 -0.691059277986405E+004  0.193310587688570E+001 
      2.90000000 -0.691055652215522E+004  0.196936358571725E+001 
      2.92000000 -0.691052002050195E+004  0.200586523898486E+001 
      2.94000000 -0.691048328283343E+004  0.204260290750519E+001 
      2.96000000 -0.691044631738894E+004  0.207956835200328E+001 
      2.98000000 -0.691040913269736E+004  0.211675304358284E+001 
      3.00000000 -0.691037173755529E+004  0.215414818564721E+001 
      3.02000000 -0.691033414100406E+004  0.219174473687623E+001 
      3.04000000 -0.691029635230677E+004  0.222953343416738E+001 
      3.06000000 -0.691025838092642E+004  0.226750481451819E+001 
      3.08000000 -0.691022023650611E+004  0.230564923482979E+001 
      3.10000000 -0.691018192885112E+004  0.234395688981945E+001 
      3.12000000 -0.691014346791357E+004  0.238241782737098E+001 
      3.14000000 -0.691010486378000E+004  0.242102196093988E+001 
      3.16000000 -0.691006612666353E+004  0.245975907740877E+001 
      3.18000000 -0.691002726690300E+004  0.249861883793733E+001 
      3.20000000 -0.690998829496714E+004  0.253759077379679E+001 
      3.22000000 -0.690994922146428E+004  0.257666427665920E+001 
      3.24000000 -0.690991005715745E+004  0.261582858348998E+001 
      3.26000000 -0.690987081298434E+004  0.265507275660278E+001 
      3.28000000 -0.690983150008164E+004  0.269438565929458E+001 
      3.30000000 -0.690979212981173E+004  0.273375592921222E+001 
      3.32000000 -0.690975271379083E+004  0.277317195010966E+001 
      3.34000000 -0.690971326391699E+004  0.281262182394700E+001 
      3.36000000 -0.690967379239481E+004  0.285209334613023E+001 
      3.38000000 -0.690963431175509E+004  0.289157398584853E+001 
      3.40000000 -0.690959483486703E+004  0.293105087391337E+001 
      3.42000000 -0.690955537493950E+004  0.297051080143444E+001 
      3.44000000 -0.690951594550957E+004  0.300994023136418E+001 
      3.46000000 -0.690947656041638E+004  0.304932532455955E+001 
      3.48000000 -0.690943723375914E+004  0.308865198179358E+001 
      3.50000000 -0.690939797983768E+004  0.312790590325956E+001 
      3.52000000 -0.690935881307570E+004  0.316707266523602E+001 
      3.54000000 -0.690931974792879E+004  0.320613781214618E+001 
      3.56000000 -0.690928079877964E+004  0.324508696129635E+001 
      3.58000000 -0.690924197982347E+004  0.328390591746436E+001 
      3.60000000 -0.690920330495091E+004  0.332258079003236E+001 
      3.62000000 -0.690916478763443E+004  0.336109810651187E+001 
      3.64000000 -0.690912644082690E+004  0.339944491403464E+001 
      3.66000000 -0.690908827688111E+004  0.343760885982980E+001 
      3.68000000 -0.690905030749872E+004  0.347557824222219E+001 
      3.70000000 -0.690901254371866E+004  0.351334202227505E+001 
      3.72000000 -0.690897499595231E+004  0.355088978862846E+001 
      3.74000000 -0.690893767407141E+004  0.358821166953034E+001 
      3.76000000 -0.690890058755438E+004  0.362529818655366E+001 
      3.78000000 -0.690886374569280E+004  0.366214004814350E+001 
      3.80000000 -0.690882715785809E+004  0.369872788285255E+001 
      3.82000000 -0.690879083382701E+004  0.373505191393326E+001 
      3.84000000 -0.690875478415902E+004  0.377110158191684E+001 
      3.86000000 -0.690871902061577E+004  0.380686512516924E+001 
      3.88000000 -0.690868355661001E+004  0.384232913093347E+001 
      3.90000000 -0.690864840766594E+004  0.387747807500013E+001 
      3.92000000 -0.690861359186909E+004  0.391229387184720E+001 
      3.94000000 -0.690857913027968E+004  0.394675546125630E+001 
      3.96000000 -0.690854504727996E+004  0.398083846097988E+001 
      3.98000000 -0.690851137082462E+004  0.401451491632234E+001 
      4.00000000 -0.690847813256241E+004  0.404775317852544E+001 
      4.02000000 -0.690844536779634E+004  0.408051794460267E+001 
      4.04000000 -0.690841311525111E+004  0.411277048983081E+001 
      4.06000000 -0.690838141661930E+004  0.414446912163561E+001 
      4.08000000 -0.690835031585886E+004  0.417556988207410E+001 
      4.10000000 -0.690831985821965E+004  0.420602752128716E+001 
      4.12000000 -0.690829008898423E+004  0.423579675670731E+001 
      4.14000000 -0.690826105191680E+004  0.426483382413453E+001 
      4.16000000 -0.690823278742691E+004  0.429309831402748E+001 
      4.18000000 -0.690820533046843E+004  0.432055527250666E+001 
      4.20000000 -0.690817870820950E+004  0.434717753143993E+001 
      4.22000000 -0.690815293752359E+004  0.437294821735223E+001 
      4.24000000 -0.690812802236592E+004  0.439786337501730E+001 
      4.26000000 -0.690810395111177E+004  0.442193462916687E+001 
      4.28000000 -0.690808069394212E+004  0.444519179882327E+001 
      4.30000000 -0.690805820037134E+004  0.446768536960054E+001 
      4.32000000 -0.690803639701642E+004  0.448948872452335E+001 
      4.34000000 -0.690801518571188E+004  0.451070002906287E+001 
      4.36000000 -0.690799444207501E+004  0.453144366592587E+001 
      4.38000000 -0.690797401462145E+004  0.455187111948427E+001 
      4.40000000 -0.690795372452555E+004  0.457216121539190E+001 
      4.42000000 -0.690793336610658E+004  0.459251963435783E+001 
      4.44000000 -0.690791270810606E+004  0.461317763488224E+001 
      4.46000000 -0.690789149580479E+004  0.463438993614961E+001 
      4.48000000 -0.690786945400597E+004  0.465643173496584E+001 
      4.50000000 -0.690784629089075E+004  0.467959485018761E+001 
      4.52000000 -0.690782170272946E+004  0.470418301147797E+001 
      4.54000000 -0.690779537941020E+004  0.473050633073427E+001 
      4.56000000 -0.690776701072234E+004  0.475887501859542E+001 
      4.58000000 -0.690773629330734E+004  0.478959243360278E+001 
      4.60000000 -0.690770293816487E+004  0.482294757607115E+001 
      4.62000000 -0.690766667857520E+004  0.485920716573368E+001 
      4.64000000 -0.690762727827161E+004  0.489860746933382E+001 
      4.66000000 -0.690758453967337E+004  0.494134606756461E+001 
      4.68000000 -0.690753831196620E+004  0.498757377474168E+001 
      4.70000000 -0.690748849879943E+004  0.503738694150669E+001 
      4.72000000 -0.690743506535761E+004  0.509082038333022E+001 
      4.74000000 -0.690737804455981E+004  0.514784118112407E+001 
      4.76000000 -0.690731754214404E+004  0.520834359690140E+001 
      4.78000000 -0.690725374040706E+004  0.527214533387657E+001 
      4.80000000 -0.690718690038977E+004  0.533898535116738E+001 
      4.82000000 -0.690711736232883E+004  0.540852341211137E+001 
      4.84000000 -0.690704554423020E+004  0.548034151074163E+001 
      4.86000000 -0.690697193846320E+004  0.555394727774166E+001 
      4.88000000 -0.690689710632157E+004  0.562877941936941E+001 
      4.90000000 -0.690682167054625E+004  0.570421519468533E+001 
      4.92000000 -0.690674630585724E+004  0.577957988369793E+001 
      4.94000000 -0.690667172759212E+004  0.585415814882286E+001 
      4.96000000 -0.690659867860089E+004  0.592720714005028E+001 
      4.98000000 -0.690652791459619E+004  0.599797114474558E+001 
      5.00000000 -0.690646018820704E+004  0.606569753390152E+001 
      5.02000000 -0.690639623202750E+004  0.612965371343839E+001 
      5.04000000 -0.690633674099670E+004  0.618914474423329E+001 
      5.06000000 -0.690628235448260E+004  0.624353125834225E+001 
      5.08000000 -0.690623363847407E+004  0.629224726686762E+001 
      5.10000000 -0.690619106830820E+004  0.633481743274112E+001 
      5.12000000 -0.690615501237096E+004  0.637087336997622E+001 
      5.14000000 -0.690612571720825E+004  0.640016853269129E+001 
      5.16000000 -0.690610329446824E+004  0.642259127270238E+001 
      5.18000000 -0.690608771006638E+004  0.643817567456158E+001 
      5.20000000 -0.690607877591892E+004  0.644710982201441E+001 
      5.22000000 -0.690607614453883E+004  0.644974120211189E+001 
      5.24000000 -0.690607930672155E+004  0.644657901938496E+001 
      5.26000000 -0.690608759248351E+004  0.643829325742985E+001 
      5.28000000 -0.690610017534765E+004  0.642571039328627E+001 
      5.30000000 -0.690611608000665E+004  0.640980573428617E+001 
      5.32000000 -0.690613419333245E+004  0.639169240848816E+001 
      5.34000000 -0.690615327864597E+004  0.637260709496358E+001 
      5.36000000 -0.690617199310851E+004  0.635389263242505E+001 
      5.38000000 -0.690618890804503E+004  0.633697769590493E+001 
      5.40000000 -0.690620253195886E+004  0.632335378207885E+001 
      5.42000000 -0.690621133594198E+004  0.631454979895702E+001 
      5.44000000 -0.690621378112678E+004  0.631210461416236E+001 
      5.46000000 -0.690620834776279E+004  0.631753797814917E+001 
      5.48000000 -0.690619356543762E+004  0.633232030331674E+001 
      5.50000000 -0.690616804389973E+004  0.635784184120813E+001 
      5.52000000 -0.690613050388494E+004  0.639538185599973E+001 
      5.54000000 -0.690607980730429E+004  0.644607843664423E+001 
      5.56000000 -0.690601498612122E+004  0.651089961971616E+001 
      5.58000000 -0.690593526923218E+004  0.659061650875581E+001 
      5.60000000 -0.690584010666854E+004  0.668577907239489E+001 
      5.62000000 -0.690572919045627E+004  0.679669528467231E+001 
      5.64000000 -0.690560247150254E+004  0.692341423840215E+001 
      5.66000000 -0.690546017192316E+004  0.706571381777858E+001 
      5.68000000 -0.690530279228174E+004  0.722309345919542E+001 
      5.70000000 -0.690513111328259E+004  0.739477245834370E+001 
      5.72000000 -0.690494619154907E+004  0.757969419187294E+001 
      5.74000000 -0.690474934923033E+004  0.777653651060732E+001 
      5.76000000 -0.690454215731664E+004  0.798372842429395E+001 
      5.78000000 -0.690432641270786E+004  0.819947303307843E+001 
      5.80000000 -0.690410410926695E+004  0.842177647398704E+001 
      5.82000000 -0.690387740329627E+004  0.864848244466769E+001 
      5.84000000 -0.690364857408640E+004  0.887731165454052E+001 
      5.86000000 -0.690341998038964E+004  0.910590535130145E+001 
      5.88000000 -0.690319401385513E+004  0.933187188580640E+001 
      5.90000000 -0.690297305061043E+004  0.955283513051131E+001 
      5.92000000 -0.690275940228311E+004  0.976648345783311E+001 
      5.94000000 -0.690255526781147E+004  0.997061792946942E+001 
      5.96000000 -0.690236268740409E+004  0.101631983368465E+002 
      5.98000000 -0.690218349996397E+004  0.103423857769639E+002 
      6.00000000 -0.690201930520597E+004  0.105065805349656E+002 
