# Real time calculation: 
# Eall: Total energy
# Eall0: Initial total energy
# 1:Time[fs] 2:Eall[eV] 3:Eall-Eall0[eV] 
      0.00000000 -0.691252588574094E+004  0.000000000000000E+000 
      0.02000000 -0.691252588574245E+004 -0.151198542462083E-008 
      0.04000000 -0.691252588573452E+004  0.642303782684195E-008 
      0.06000000 -0.691252588568452E+004  0.564152310992156E-007 
      0.08000000 -0.691252588550338E+004  0.237562685879978E-006 
      0.10000000 -0.691252588501273E+004  0.728211623595426E-006 
      0.12000000 -0.691252588390637E+004  0.183457196197964E-005 
      0.14000000 -0.691252588170910E+004  0.403184177183601E-005 
      0.16000000 -0.691252587773464E+004  0.800630311676211E-005 
      0.18000000 -0.691252587104411E+004  0.146968301133744E-004 
      0.20000000 -0.691252586040571E+004  0.253352314866559E-004 
      0.22000000 -0.691252584425659E+004  0.414843502824744E-004 
      0.24000000 -0.691252582066872E+004  0.650722215904793E-004 
      0.26000000 -0.691252578731961E+004  0.984213269485376E-004 
      0.28000000 -0.691252574146872E+004  0.144272216118091E-003 
      0.30000000 -0.691252567994039E+004  0.205800548822690E-003 
      0.32000000 -0.691252559911379E+004  0.286627144230656E-003 
      0.34000000 -0.691252549491978E+004  0.390821158057958E-003 
      0.36000000 -0.691252536284457E+004  0.522896365636271E-003 
      0.38000000 -0.691252519794064E+004  0.687800298819739E-003 
      0.40000000 -0.691252499484430E+004  0.890896640442158E-003 
      0.42000000 -0.691252474779814E+004  0.113794279588868E-002 
      0.44000000 -0.691252445067824E+004  0.143506270056001E-002 
      0.46000000 -0.691252409702669E+004  0.178871425302110E-002 
      0.48000000 -0.691252368008807E+004  0.220565286725840E-002 
      0.50000000 -0.691252319284874E+004  0.269289219354137E-002 
      0.52000000 -0.691252262807849E+004  0.325766244717611E-002 
      0.54000000 -0.691252197837436E+004  0.390736658026289E-002 
      0.56000000 -0.691252123620677E+004  0.464953417348793E-002 
      0.58000000 -0.691252039396764E+004  0.549177330084934E-002 
      0.60000000 -0.691251944401941E+004  0.644172153127522E-002 
      0.62000000 -0.691251837874300E+004  0.750699794106783E-002 
      0.64000000 -0.691251719058381E+004  0.869515712943848E-002 
      0.66000000 -0.691251587209557E+004  0.100136453639696E-001 
      0.68000000 -0.691251441598085E+004  0.114697600864742E-001 
      0.70000000 -0.691251281512706E+004  0.130706138766989E-001 
      0.72000000 -0.691251106263796E+004  0.148231029805982E-001 
      0.74000000 -0.691250915186016E+004  0.167338807790512E-001 
      0.76000000 -0.691250707640390E+004  0.188093370338310E-001 
      0.78000000 -0.691250483015945E+004  0.210555814854635E-001 
      0.80000000 -0.691250240731070E+004  0.234784302337572E-001 
      0.82000000 -0.691249980234456E+004  0.260833963781884E-001 
      0.84000000 -0.691249701005410E+004  0.288756868338377E-001 
      0.86000000 -0.691249402553637E+004  0.318602045734594E-001 
      0.88000000 -0.691249084418617E+004  0.350415547713241E-001 
      0.90000000 -0.691248746168489E+004  0.384240560452748E-001 
      0.92000000 -0.691248387398321E+004  0.420117577266172E-001 
      0.94000000 -0.691248007727961E+004  0.458084613295387E-001 
      0.96000000 -0.691247606799461E+004  0.498177463267869E-001 
      0.98000000 -0.691247184274108E+004  0.540429998572825E-001 
      1.00000000 -0.691246739829214E+004  0.584874487941315E-001 
      1.02000000 -0.691246273154725E+004  0.631541936888915E-001 
      1.04000000 -0.691245783949678E+004  0.680462441574442E-001 
      1.06000000 -0.691245271918693E+004  0.731665540060079E-001 
      1.08000000 -0.691244736768535E+004  0.785180555876223E-001 
      1.10000000 -0.691244178204716E+004  0.841036937827647E-001 
      1.12000000 -0.691243595928269E+004  0.899264582529761E-001 
      1.14000000 -0.691242989632777E+004  0.959894131709034E-001 
      1.16000000 -0.691242359001495E+004  0.102295725990559E+000 
      1.18000000 -0.691241703704464E+004  0.108848696294920E+000 
      1.20000000 -0.691241023395929E+004  0.115651781652812E+000 
      1.22000000 -0.691240317712176E+004  0.122708619176497E+000 
      1.24000000 -0.691239586269730E+004  0.130023043633787E+000 
      1.26000000 -0.691238828663891E+004  0.137599102024205E+000 
      1.28000000 -0.691238044467666E+004  0.145441064280436E+000 
      1.30000000 -0.691237233231039E+004  0.153553430546742E+000 
      1.32000000 -0.691236394480606E+004  0.161940934877330E+000 
      1.34000000 -0.691235527719554E+004  0.170608545394897E+000 
      1.36000000 -0.691234632428136E+004  0.179561459583756E+000 
      1.38000000 -0.691233708064573E+004  0.188805095213284E+000 
      1.40000000 -0.691232754066306E+004  0.198345077877765E+000 
      1.42000000 -0.691231769851595E+004  0.208187224988684E+000 
      1.44000000 -0.691230754821595E+004  0.218337524985894E+000 
      1.46000000 -0.691229708362901E+004  0.228802111930842E+000 
      1.48000000 -0.691228629850426E+004  0.239587236676767E+000 
      1.50000000 -0.691227518650548E+004  0.250699235461929E+000 
      1.52000000 -0.691226374124434E+004  0.262144496600308E+000 
      1.54000000 -0.691225195631409E+004  0.273929426848240E+000 
      1.56000000 -0.691223982532352E+004  0.286060417416838E+000 
      1.58000000 -0.691222734193383E+004  0.298543807109712E+000 
      1.60000000 -0.691221449989828E+004  0.311385842653268E+000 
      1.62000000 -0.691220129310319E+004  0.324592637749356E+000 
      1.64000000 -0.691218771560771E+004  0.338170133224594E+000 
      1.66000000 -0.691217376168288E+004  0.352124058056723E+000 
      1.68000000 -0.691215942585050E+004  0.366459890434208E+000 
      1.70000000 -0.691214470292211E+004  0.381182818825909E+000 
      1.72000000 -0.691212958803675E+004  0.396297704187626E+000 
      1.74000000 -0.691211407669512E+004  0.411809045813660E+000 
      1.76000000 -0.691209816479045E+004  0.427720950491536E+000 
      1.78000000 -0.691208184863721E+004  0.444037103724011E+000 
      1.80000000 -0.691206512499473E+004  0.460760746204741E+000 
      1.82000000 -0.691204799108366E+004  0.477894657276163E+000 
      1.84000000 -0.691203044459844E+004  0.495441142494084E+000 
      1.86000000 -0.691201248371568E+004  0.513402025254149E+000 
      1.88000000 -0.691199410709768E+004  0.531778643256652E+000 
      1.90000000 -0.691197531389152E+004  0.550571849419921E+000 
      1.92000000 -0.691195610372416E+004  0.569782016774347E+000 
      1.94000000 -0.691193647669266E+004  0.589409048279854E+000 
      1.96000000 -0.691191643334842E+004  0.609452392517293E+000 
      1.98000000 -0.691189597467739E+004  0.629911063543783E+000 
      2.00000000 -0.691187510207661E+004  0.650783664330421E+000 
      2.02000000 -0.691185381732612E+004  0.672068414818701E+000 
      2.04000000 -0.691183212255765E+004  0.693763183289375E+000 
      2.06000000 -0.691181002022033E+004  0.715865520605251E+000 
      2.08000000 -0.691178751304513E+004  0.738372695808199E+000 
      2.10000000 -0.691176460400750E+004  0.761281733435422E+000 
      2.12000000 -0.691174129628917E+004  0.784589451767652E+000 
      2.14000000 -0.691171759323914E+004  0.808292501800485E+000 
      2.16000000 -0.691169349833521E+004  0.832387405725371E+000 
      2.18000000 -0.691166901514672E+004  0.856870594218814E+000 
      2.20000000 -0.691164414729932E+004  0.881738441614784E+000 
      2.22000000 -0.691161889844214E+004  0.906987298797944E+000 
      2.24000000 -0.691159327221822E+004  0.932613522714819E+000 
      2.26000000 -0.691156727223748E+004  0.958613503454192E+000 
      2.28000000 -0.691154090205362E+004  0.984983687317445E+000 
      2.30000000 -0.691151416514438E+004  0.101172059655635E+001 
      2.32000000 -0.691148706489591E+004  0.103882084502426E+001 
      2.34000000 -0.691145960459112E+004  0.106628114982031E+001 
      2.36000000 -0.691143178740185E+004  0.109409833909063E+001 
      2.38000000 -0.691140361638464E+004  0.112226935629909E+001 
      2.40000000 -0.691137509448167E+004  0.115079125926975E+001 
      2.42000000 -0.691134622452627E+004  0.117966121466800E+001 
      2.44000000 -0.691131700925382E+004  0.120887648711963E+001 
      2.46000000 -0.691128745131663E+004  0.123843442431142E+001 
      2.48000000 -0.691125755330191E+004  0.126833243903211E+001 
      2.50000000 -0.691122731775403E+004  0.129856798690568E+001 
      2.52000000 -0.691119674720045E+004  0.132913854048646E+001 
      2.54000000 -0.691116584418038E+004  0.136004156055851E+001 
      2.56000000 -0.691113461127574E+004  0.139127446520061E+001 
      2.58000000 -0.691110305114338E+004  0.142283459755351E+001 
      2.60000000 -0.691107116654819E+004  0.145471919274653E+001 
      2.62000000 -0.691103896039704E+004  0.148692534389836E+001 
      2.64000000 -0.691100643577215E+004  0.151944996878843E+001 
      2.66000000 -0.691097359596326E+004  0.155228977768140E+001 
      2.68000000 -0.691094044449660E+004  0.158544124433413E+001 
      2.70000000 -0.691090698516221E+004  0.161890057872739E+001 
      2.72000000 -0.691087322203832E+004  0.165266370261500E+001 
      2.74000000 -0.691083915951375E+004  0.168672622718663E+001 
      2.76000000 -0.691080480230708E+004  0.172108343386215E+001 
      2.78000000 -0.691077015548303E+004  0.175573025790648E+001 
      2.80000000 -0.691073522446536E+004  0.179066127557885E+001 
      2.82000000 -0.691070001504587E+004  0.182587069506559E+001 
      2.84000000 -0.691066453338832E+004  0.186135235262238E+001 
      2.86000000 -0.691062878602749E+004  0.189709971344822E+001 
      2.88000000 -0.691059277986405E+004  0.193310587688570E+001 
      2.90000000 -0.691055652215522E+004  0.196936358571725E+001 
      2.92000000 -0.691052002050195E+004  0.200586523898486E+001 
      2.94000000 -0.691048328283343E+004  0.204260290750519E+001 
      2.96000000 -0.691044631738894E+004  0.207956835200328E+001 
      2.98000000 -0.691040913269736E+004  0.211675304358284E+001 
      3.00000000 -0.691037173755529E+004  0.215414818564721E+001 
      3.02000000 -0.691033414100406E+004  0.219174473687623E+001 
      3.04000000 -0.691029635230677E+004  0.222953343416738E+001 
      3.06000000 -0.691025838092642E+004  0.226750481451819E+001 
      3.08000000 -0.691022023650611E+004  0.230564923482979E+001 
      3.10000000 -0.691018192885112E+004  0.234395688981945E+001 
      3.12000000 -0.691014346791365E+004  0.238241782729054E+001 
      3.14000000 -0.691010486378117E+004  0.242102195976432E+001 
      3.16000000 -0.691006612666845E+004  0.245975907248689E+001 
      3.18000000 -0.691002726691496E+004  0.249861882597601E+001 
      3.20000000 -0.690998829498721E+004  0.253759075372876E+001 
      3.22000000 -0.690994922148660E+004  0.257666425434060E+001 
      3.24000000 -0.690991005716283E+004  0.261582857810561E+001 
      3.26000000 -0.690987081293252E+004  0.265507280841941E+001 
      3.28000000 -0.690983149990278E+004  0.269438583815742E+001 
      3.30000000 -0.690979212939826E+004  0.273375634267720E+001 
      3.32000000 -0.690975271299128E+004  0.277317274965761E+001 
      3.34000000 -0.690971326253401E+004  0.281262320692797E+001 
      3.36000000 -0.690967379019079E+004  0.285209555015332E+001 
      3.38000000 -0.690963430846970E+004  0.289157727123509E+001 
      3.40000000 -0.690959483025245E+004  0.293105548849211E+001 
      3.42000000 -0.690955536882004E+004  0.297051692090117E+001 
      3.44000000 -0.690951593787384E+004  0.300994786709475E+001 
      3.46000000 -0.690947655155102E+004  0.304933418991942E+001 
      3.48000000 -0.690943722443359E+004  0.308866130735154E+001 
      3.50000000 -0.690939797154965E+004  0.312791419129312E+001 
      3.52000000 -0.690935880836619E+004  0.316707737474966E+001 
      3.54000000 -0.690931975077385E+004  0.320613496709231E+001 
      3.56000000 -0.690928081506358E+004  0.324507067735563E+001 
      3.58000000 -0.690924201789454E+004  0.328386784640222E+001 
      3.60000000 -0.690920337625547E+004  0.332250948547182E+001 
      3.62000000 -0.690916490742029E+004  0.336097832064603E+001 
      3.64000000 -0.690912662889936E+004  0.339925684157911E+001 
      3.66000000 -0.690908855838805E+004  0.343732735289080E+001 
      3.68000000 -0.690905071371365E+004  0.347517202729303E+001 
      3.70000000 -0.690901311278265E+004  0.351277295829140E+001 
      3.72000000 -0.690897577352898E+004  0.355011221195376E+001 
      3.74000000 -0.690893871386320E+004  0.358717187774006E+001 
      3.76000000 -0.690890195162361E+004  0.362393411732593E+001 
      3.78000000 -0.690886550452920E+004  0.366038121174257E+001 
      3.80000000 -0.690882939013465E+004  0.369649560628700E+001 
      3.82000000 -0.690879362578966E+004  0.373225995127837E+001 
      3.84000000 -0.690875822860273E+004  0.376765713820870E+001 
      3.86000000 -0.690872321541065E+004  0.380267033028427E+001 
      3.88000000 -0.690868860275595E+004  0.383728298499241E+001 
      3.90000000 -0.690865440687302E+004  0.387147886791980E+001 
      3.92000000 -0.690862064368373E+004  0.390524205720715E+001 
      3.94000000 -0.690858732880230E+004  0.393855693863591E+001 
      3.96000000 -0.690855447754865E+004  0.397140819228406E+001 
      3.98000000 -0.690852210496974E+004  0.400378077119981E+001 
      4.00000000 -0.690849022586856E+004  0.403565987237608E+001 
      4.02000000 -0.690845885483927E+004  0.406703090167170E+001 
      4.04000000 -0.690842800630682E+004  0.409787943412083E+001 
      4.06000000 -0.690839769456905E+004  0.412819117189122E+001 
      4.08000000 -0.690836793383584E+004  0.415795190509792E+001 
      4.10000000 -0.690833873825922E+004  0.418714748171356E+001 
      4.12000000 -0.690831012194802E+004  0.421576379291725E+001 
      4.14000000 -0.690828209896047E+004  0.424378678047345E+001 
      4.16000000 -0.690825468327094E+004  0.427120246999801E+001 
      4.18000000 -0.690822788870947E+004  0.429799703147318E+001 
      4.20000000 -0.690820172887613E+004  0.432415686481357E+001 
      4.22000000 -0.690817621703498E+004  0.434966870595496E+001 
      4.24000000 -0.690815136599422E+004  0.437451974671646E+001 
      4.26000000 -0.690812718798015E+004  0.439869776078873E+001 
      4.28000000 -0.690810369451189E+004  0.442219122904468E+001 
      4.30000000 -0.690808089628388E+004  0.444498945705750E+001 
      4.32000000 -0.690805880306176E+004  0.446708267918169E+001 
      4.34000000 -0.690803742359800E+004  0.448846214294354E+001 
      4.36000000 -0.690801676557265E+004  0.450912016828926E+001 
      4.38000000 -0.690799683556183E+004  0.452905017911086E+001 
      4.40000000 -0.690797763903634E+004  0.454824670460116E+001 
      4.42000000 -0.690795918038796E+004  0.456670535298154E+001 
      4.44000000 -0.690794146297715E+004  0.458442276378822E+001 
      4.46000000 -0.690792448919491E+004  0.460139654603320E+001 
      4.48000000 -0.690790826052751E+004  0.461762521342706E+001 
      4.50000000 -0.690789277761476E+004  0.463310812618265E+001 
      4.52000000 -0.690787804029293E+004  0.464784544801202E+001 
      4.54000000 -0.690786404761829E+004  0.466183812265239E+001 
      4.56000000 -0.690785079787064E+004  0.467508787029384E+001 
      4.58000000 -0.690783828853968E+004  0.468759720125908E+001 
      4.60000000 -0.690782651630071E+004  0.469936944023315E+001 
      4.62000000 -0.690781547698789E+004  0.471040875304601E+001 
      4.64000000 -0.690780516557110E+004  0.472072016983574E+001 
      4.66000000 -0.690779557614344E+004  0.473030959749553E+001 
      4.68000000 -0.690778670192102E+004  0.473918381991882E+001 
      4.70000000 -0.690777853525506E+004  0.474735048588102E+001 
      4.72000000 -0.690777106765215E+004  0.475481808878431E+001 
      4.74000000 -0.690776428979764E+004  0.476159594329803E+001 
      4.76000000 -0.690775819157593E+004  0.476769416501072E+001 
      4.78000000 -0.690775276208304E+004  0.477312365789875E+001 
      4.80000000 -0.690774798962749E+004  0.477789611344705E+001 
      4.82000000 -0.690774386171992E+004  0.478202402102026E+001 
      4.84000000 -0.690774036505379E+004  0.478552068714890E+001 
      4.86000000 -0.690773748548339E+004  0.478840025754787E+001 
      4.88000000 -0.690773520800806E+004  0.479067773287360E+001 
      4.90000000 -0.690773351677067E+004  0.479236897026620E+001 
      4.92000000 -0.690773239507799E+004  0.479349066294809E+001 
      4.94000000 -0.690773182544643E+004  0.479406029450478E+001 
      4.96000000 -0.690773178967233E+004  0.479409606861124E+001 
      4.98000000 -0.690773226892119E+004  0.479361681975129E+001 
      5.00000000 -0.690773324382601E+004  0.479264191493229E+001 
      5.02000000 -0.690773469458115E+004  0.479119115978821E+001 
      5.04000000 -0.690773660101872E+004  0.478928472222320E+001 
      5.06000000 -0.690773894265634E+004  0.478694308459721E+001 
      5.08000000 -0.690774169871084E+004  0.478418703009809E+001 
      5.10000000 -0.690774484807775E+004  0.478103766318545E+001 
      5.12000000 -0.690774836928529E+004  0.477751645565016E+001 
      5.14000000 -0.690775224043626E+004  0.477364530467456E+001 
      5.16000000 -0.690775643915739E+004  0.476944658354782E+001 
      5.18000000 -0.690776094257512E+004  0.476494316581514E+001 
      5.20000000 -0.690776572733411E+004  0.476015840682381E+001 
      5.22000000 -0.690777076966910E+004  0.475511607184163E+001 
      5.24000000 -0.690777604552987E+004  0.474984021106870E+001 
      5.26000000 -0.690778153075026E+004  0.474435499067942E+001 
      5.28000000 -0.690778720124216E+004  0.473868449877640E+001 
      5.30000000 -0.690779303318965E+004  0.473285255128708E+001 
      5.32000000 -0.690779900321594E+004  0.472688252500340E+001 
      5.34000000 -0.690780508849886E+004  0.472079724208240E+001 
      5.36000000 -0.690781126681899E+004  0.471461892194417E+001 
      5.38000000 -0.690781751653547E+004  0.470836920546826E+001 
      5.40000000 -0.690782381649794E+004  0.470206924299899E+001 
      5.42000000 -0.690783014591542E+004  0.469573982552156E+001 
      5.44000000 -0.690783648421125E+004  0.468940152969355E+001 
      5.46000000 -0.690784281089704E+004  0.468307484389968E+001 
      5.48000000 -0.690784910549564E+004  0.467678024529499E+001 
      5.50000000 -0.690785534753451E+004  0.467053820642508E+001 
      5.52000000 -0.690786151661792E+004  0.466436912302360E+001 
      5.54000000 -0.690786759257203E+004  0.465829316890650E+001 
      5.56000000 -0.690787355564281E+004  0.465233009812855E+001 
      5.58000000 -0.690787938671693E+004  0.464649902400918E+001 
      5.60000000 -0.690788506753143E+004  0.464081820950866E+001 
      5.62000000 -0.690789058083981E+004  0.463530490113243E+001 
      5.64000000 -0.690789591051068E+004  0.462997523025686E+001 
      5.66000000 -0.690790104154766E+004  0.462484419327465E+001 
      5.68000000 -0.690790596003315E+004  0.461992570778580E+001 
      5.70000000 -0.690791065301302E+004  0.461523272792072E+001 
      5.72000000 -0.690791510834816E+004  0.461077739278085E+001 
      5.74000000 -0.690791931456389E+004  0.460657117704785E+001 
      5.76000000 -0.690792326072645E+004  0.460262501449236E+001 
      5.78000000 -0.690792693636820E+004  0.459894937274336E+001 
      5.80000000 -0.690793033147256E+004  0.459555426837871E+001 
      5.82000000 -0.690793343651662E+004  0.459244922432266E+001 
      5.84000000 -0.690793624255757E+004  0.458964318336963E+001 
      5.86000000 -0.690793874134133E+004  0.458714439960968E+001 
      5.88000000 -0.690794092540768E+004  0.458496033326243E+001 
      5.90000000 -0.690794278816830E+004  0.458309757263692E+001 
      5.92000000 -0.690794432394046E+004  0.458156180047585E+001 
      5.94000000 -0.690794552792810E+004  0.458035781283643E+001 
      5.96000000 -0.690794639615300E+004  0.457948958793793E+001 
      5.98000000 -0.690794692534746E+004  0.457896039348015E+001 
      6.00000000 -0.690794711282649E+004  0.457877291444680E+001 
