# Real time calculation: 
# Eall: Total energy
# Eall0: Initial total energy
# 1:Time[fs] 2:Eall[eV] 3:Eall-Eall0[eV] 
      0.00000000 -0.680672315104067E+004  0.000000000000000E+000 
      0.02000000 -0.680672315104129E+004 -0.623355627746491E-009 
      0.04000000 -0.680672315104188E+004 -0.120649476338031E-008 
      0.06000000 -0.680672315104243E+004 -0.175715134769234E-008 
      0.08000000 -0.680672315104295E+004 -0.227687216884078E-008 
      0.10000000 -0.680672315104344E+004 -0.277339116761652E-008 
      0.12000000 -0.680672315104392E+004 -0.324980192033593E-008 
      0.14000000 -0.680672315104438E+004 -0.371074479147353E-008 
      0.16000000 -0.680672315104483E+004 -0.415776656918752E-008 
      0.18000000 -0.680672315104526E+004 -0.459396082979424E-008 
      0.20000000 -0.680672315104569E+004 -0.502010096737280E-008 
      0.22000000 -0.680672315104611E+004 -0.543850716416046E-008 
      0.24000000 -0.680672315104652E+004 -0.585149960239448E-008 
      0.26000000 -0.680672315104693E+004 -0.625675809983761E-008 
      0.28000000 -0.680672315104733E+004 -0.665969641504347E-008 
      0.30000000 -0.680672315104773E+004 -0.705954115393297E-008 
      0.32000000 -0.680672315104812E+004 -0.745087855795248E-008 
      0.34000000 -0.680672315104852E+004 -0.784685632644653E-008 
      0.36000000 -0.680672315104890E+004 -0.823510015414968E-008 
      0.38000000 -0.680672315104930E+004 -0.862566416409010E-008 
      0.40000000 -0.680672315104968E+004 -0.901236120363507E-008 
      0.42000000 -0.680672315105007E+004 -0.939828484910095E-008 
      0.44000000 -0.680672315105045E+004 -0.978266170640865E-008 
      0.46000000 -0.680672315105084E+004 -0.101670385637163E-007 
      0.48000000 -0.680672315105122E+004 -0.105498686328659E-007 
      0.50000000 -0.680672315105160E+004 -0.109319253079363E-007 
      0.52000000 -0.680672315105198E+004 -0.113132085889276E-007 
      0.54000000 -0.680672315105236E+004 -0.116929450817608E-007 
      0.56000000 -0.680672315105274E+004 -0.120742283627521E-007 
      0.58000000 -0.680672315105313E+004 -0.124562850378226E-007 
      0.60000000 -0.680672315105351E+004 -0.128367949247348E-007 
      0.62000000 -0.680672315105388E+004 -0.132142112353307E-007 
      0.64000000 -0.680672315105427E+004 -0.135954945163220E-007 
      0.66000000 -0.680672315105465E+004 -0.139760044032343E-007 
      0.68000000 -0.680672315105502E+004 -0.143541941079093E-007 
      0.70000000 -0.680672315105540E+004 -0.147323838125843E-007 
      0.72000000 -0.680672315105578E+004 -0.151136670935756E-007 
      0.74000000 -0.680672315105616E+004 -0.154910834041715E-007 
      0.76000000 -0.680672315105654E+004 -0.158692731088465E-007 
      0.78000000 -0.680672315105692E+004 -0.162474628135215E-007 
      0.80000000 -0.680672315105729E+004 -0.166248791241173E-007 
      0.82000000 -0.680672315105767E+004 -0.170038422228714E-007 
      0.84000000 -0.680672315105805E+004 -0.173812585334673E-007 
      0.86000000 -0.680672315105843E+004 -0.177586748440632E-007 
      0.88000000 -0.680672315105881E+004 -0.181368645487382E-007 
      0.90000000 -0.680672315105918E+004 -0.185150542534132E-007 
      0.92000000 -0.680672315105956E+004 -0.188909237758509E-007 
      0.94000000 -0.680672315105994E+004 -0.192683400864468E-007 
      0.96000000 -0.680672315106032E+004 -0.196457563970426E-007 
      0.98000000 -0.680672315106069E+004 -0.200247194957967E-007 
      1.00000000 -0.680672315106107E+004 -0.203998156241553E-007 
      1.02000000 -0.680672315106145E+004 -0.207764585406721E-007 
      1.04000000 -0.680672315106182E+004 -0.211531014571889E-007 
      1.06000000 -0.680672315106220E+004 -0.215312911618639E-007 
      1.08000000 -0.680672315106258E+004 -0.219071606843016E-007 
      1.10000000 -0.680672315106295E+004 -0.222838036008184E-007 
      1.12000000 -0.680672315106333E+004 -0.226604465173352E-007 
      1.14000000 -0.680672315106371E+004 -0.230370894338520E-007 
      1.16000000 -0.680672315106408E+004 -0.234137323503688E-007 
      1.18000000 -0.680672315106446E+004 -0.237903752668856E-007 
      1.20000000 -0.680672315106484E+004 -0.241662447893233E-007 
      1.22000000 -0.680672315106521E+004 -0.245405675236029E-007 
      1.24000000 -0.680672315106559E+004 -0.249179838341988E-007 
      1.26000000 -0.680672315106596E+004 -0.252930799625574E-007 
      1.28000000 -0.680672315106634E+004 -0.256697228790742E-007 
      1.30000000 -0.680672315106671E+004 -0.260448190074328E-007 
      1.32000000 -0.680672315106709E+004 -0.264206885298705E-007 
      1.34000000 -0.680672315106746E+004 -0.267950112641500E-007 
      1.36000000 -0.680672315106784E+004 -0.271701073925087E-007 
      1.38000000 -0.680672315106822E+004 -0.275467503090255E-007 
      1.40000000 -0.680672315106859E+004 -0.279210730433050E-007 
      1.42000000 -0.680672315106897E+004 -0.282953957775845E-007 
      1.44000000 -0.680672315106934E+004 -0.286712653000222E-007 
      1.46000000 -0.680672315106972E+004 -0.290455880343018E-007 
      1.48000000 -0.680672315107009E+004 -0.294191373745022E-007 
      1.50000000 -0.680672315107046E+004 -0.297942335028608E-007 
      1.52000000 -0.680672315107084E+004 -0.301662360549031E-007 
      1.54000000 -0.680672315107121E+004 -0.305397853951035E-007 
      1.56000000 -0.680672315107158E+004 -0.309110145530667E-007 
      1.58000000 -0.680672315107195E+004 -0.312822437110299E-007 
      1.60000000 -0.680672315107232E+004 -0.316519260808349E-007 
      1.62000000 -0.680672315107269E+004 -0.320192882684026E-007 
      1.64000000 -0.680672315107306E+004 -0.323866504559703E-007 
      1.66000000 -0.680672315107342E+004 -0.327516924613008E-007 
      1.68000000 -0.680672315107378E+004 -0.331151876784730E-007 
      1.70000000 -0.680672315107414E+004 -0.334748159252499E-007 
      1.72000000 -0.680672315107450E+004 -0.338328973838685E-007 
      1.74000000 -0.680672315107486E+004 -0.341917522365662E-007 
      1.76000000 -0.680672315107521E+004 -0.345428731484731E-007 
      1.78000000 -0.680672315107556E+004 -0.348909004840635E-007 
      1.80000000 -0.680672315107591E+004 -0.352373810314958E-007 
      1.82000000 -0.680672315107625E+004 -0.355769010322163E-007 
      1.84000000 -0.680672315107658E+004 -0.359133274566204E-007 
      1.86000000 -0.680672315107692E+004 -0.362474336987873E-007 
      1.88000000 -0.680672315107725E+004 -0.365761261824005E-007 
      1.90000000 -0.680672315107757E+004 -0.369001783015392E-007 
      1.92000000 -0.680672315107789E+004 -0.372211368443615E-007 
      1.94000000 -0.680672315107821E+004 -0.375359082345511E-007 
      1.96000000 -0.680672315107852E+004 -0.378468126543453E-007 
      1.98000000 -0.680672315107883E+004 -0.381561702859813E-007 
      2.00000000 -0.680672315107913E+004 -0.384616609472218E-007 
      2.02000000 -0.680672315107944E+004 -0.387656048203041E-007 
      2.04000000 -0.680672315107974E+004 -0.390680019052283E-007 
      2.06000000 -0.680672315108004E+004 -0.393711723842316E-007 
      2.08000000 -0.680672315108035E+004 -0.396766630454721E-007 
      2.10000000 -0.680672315108065E+004 -0.399837004948708E-007 
      2.12000000 -0.680672315108096E+004 -0.402946049146649E-007 
      2.14000000 -0.680672315108128E+004 -0.406101496989336E-007 
      2.16000000 -0.680672315108160E+004 -0.409334284239932E-007 
      2.18000000 -0.680672315108193E+004 -0.412613475135274E-007 
      2.20000000 -0.680672315108227E+004 -0.416024143024060E-007 
      2.22000000 -0.680672315108262E+004 -0.419535352143129E-007 
      2.24000000 -0.680672315108298E+004 -0.423100698847733E-007 
      2.26000000 -0.680672315108335E+004 -0.426812990427365E-007 
      2.28000000 -0.680672315108373E+004 -0.430579419592533E-007 
      2.30000000 -0.680672315108411E+004 -0.434454123928774E-007 
      2.32000000 -0.680672315108450E+004 -0.438344296146596E-007 
      2.34000000 -0.680672315108490E+004 -0.442249936246000E-007 
      2.36000000 -0.680672315108528E+004 -0.446124640582241E-007 
      2.38000000 -0.680672315108566E+004 -0.449860133984245E-007 
      2.40000000 -0.680672315108601E+004 -0.453394544925686E-007 
      2.42000000 -0.680672315108633E+004 -0.456619598235491E-007 
      2.44000000 -0.680672315108661E+004 -0.459411550861006E-007 
      2.46000000 -0.680672315108683E+004 -0.461623457927203E-007 
      2.48000000 -0.680672315108698E+004 -0.463092906677474E-007 
      2.50000000 -0.680672315108703E+004 -0.463611080710464E-007 
      2.52000000 -0.680672315108697E+004 -0.462961429684029E-007 
      2.54000000 -0.680672315108676E+004 -0.460904201433650E-007 
      2.56000000 -0.680672315108639E+004 -0.457215111676391E-007 
      2.58000000 -0.680672315108583E+004 -0.451584802780616E-007 
      2.60000000 -0.680672315108504E+004 -0.443742586818644E-007 
      2.62000000 -0.680672315108400E+004 -0.433332702514093E-007 
      2.64000000 -0.680672315108268E+004 -0.420068994057701E-007 
      2.66000000 -0.680672315108103E+004 -0.403634369877040E-007 
      2.68000000 -0.680672315107904E+004 -0.383680802636519E-007 
      2.70000000 -0.680672315107666E+004 -0.359914402586085E-007 
      2.72000000 -0.680672315107387E+004 -0.332018078153311E-007 
      2.74000000 -0.680672315107064E+004 -0.299744343232888E-007 
      2.76000000 -0.680672315106695E+004 -0.262814775956343E-007 
      2.78000000 -0.680672315106277E+004 -0.221043761744696E-007 
      2.80000000 -0.680672315105810E+004 -0.174276621782127E-007 
      2.82000000 -0.680672315105291E+004 -0.122428282719937E-007 
      2.84000000 -0.680672315104721E+004 -0.654523409133816E-008 
      2.86000000 -0.680672315104101E+004 -0.340293394799573E-009 
      2.88000000 -0.680672315103431E+004  0.635961951235657E-008 
      2.90000000 -0.680672315102714E+004  0.135282092314412E-007 
      2.92000000 -0.680672315101954E+004  0.211345399992908E-007 
      2.94000000 -0.680672315101153E+004  0.291360751415553E-007 
      2.96000000 -0.680672315100319E+004  0.374771302845403E-007 
      2.98000000 -0.680672315099457E+004  0.460958339019186E-007 
      3.00000000 -0.680672315098576E+004  0.549140731917021E-007 
      3.02000000 -0.680672315097682E+004  0.638452280170327E-007 
      3.04000000 -0.680672315096787E+004  0.727972644824987E-007 
      3.06000000 -0.680672315095900E+004  0.816696413578185E-007 
      3.08000000 -0.680672315095032E+004  0.903478963192867E-007 
      3.10000000 -0.680672315094195E+004  0.987175670431981E-007 
      3.12000000 -0.680672315093401E+004  0.106658777447294E-006 
      3.14000000 -0.680672315092662E+004  0.114053198237472E-006 
      3.16000000 -0.680672315091989E+004  0.120780953331476E-006 
      3.18000000 -0.680672315091394E+004  0.126729127193757E-006 
      3.20000000 -0.680672315090888E+004  0.131790218047321E-006 
      3.22000000 -0.680672315090480E+004  0.135871418602679E-006 
      3.24000000 -0.680672315090178E+004  0.138885335328892E-006 
      3.26000000 -0.680672315089989E+004  0.140774737064109E-006 
      3.28000000 -0.680672315089918E+004  0.141493993557663E-006 
      3.30000000 -0.680672315089964E+004  0.141031503898367E-006 
      3.32000000 -0.680672315090127E+004  0.139395775421092E-006 
      3.34000000 -0.680672315090404E+004  0.136633985164661E-006 
      3.36000000 -0.680672315090785E+004  0.132821152354748E-006 
      3.38000000 -0.680672315091259E+004  0.128078699861769E-006 
      3.40000000 -0.680672315091811E+004  0.122557439531145E-006 
      3.42000000 -0.680672315092421E+004  0.116458453823442E-006 
      3.44000000 -0.680672315093065E+004  0.110018401326860E-006 
      3.46000000 -0.680672315093716E+004  0.103514157121714E-006 
      3.48000000 -0.680672315094340E+004  0.972697733271417E-007 
      3.50000000 -0.680672315094903E+004  0.916441047958415E-007 
      3.52000000 -0.680672315095364E+004  0.870346760844655E-007 
      3.54000000 -0.680672315095681E+004  0.838645337542758E-007 
      3.56000000 -0.680672315095807E+004  0.825984876468056E-007 
      3.58000000 -0.680672315095696E+004  0.837129485147742E-007 
      3.60000000 -0.680672315095296E+004  0.877067555391946E-007 
      3.62000000 -0.680672315094559E+004  0.950795212951590E-007 
      3.64000000 -0.680672315093432E+004  0.106347099633420E-006 
      3.66000000 -0.680672315091867E+004  0.122000595794201E-006 
      3.68000000 -0.680672315089814E+004  0.142525701259169E-006 
      3.70000000 -0.680672315087229E+004  0.168375624958671E-006 
      3.72000000 -0.680672315084071E+004  0.199962585936862E-006 
      3.74000000 -0.680672315080301E+004  0.237657813351706E-006 
      3.76000000 -0.680672315075890E+004  0.281769891440759E-006 
      3.78000000 -0.680672315070813E+004  0.332540892550776E-006 
      3.80000000 -0.680672315065054E+004  0.390130909256129E-006 
      3.82000000 -0.680672315058605E+004  0.454618054358807E-006 
      3.84000000 -0.680672315051469E+004  0.525984539794989E-006 
      3.86000000 -0.680672315043656E+004  0.604105075723864E-006 
      3.88000000 -0.680672315035191E+004  0.688756151256574E-006 
      3.90000000 -0.680672315026108E+004  0.779593606027925E-006 
      3.92000000 -0.680672315016450E+004  0.876168871472044E-006 
      3.94000000 -0.680672315006276E+004  0.977911182758562E-006 
      3.96000000 -0.680672314995653E+004  0.108414227328012E-005 
      3.98000000 -0.680672314984659E+004  0.119408178841091E-005 
      4.00000000 -0.680672314973384E+004  0.130683027083696E-005 
      4.02000000 -0.680672314961926E+004  0.142141324401861E-005 
      4.04000000 -0.680672314950391E+004  0.153675955715632E-005 
      4.06000000 -0.680672314938893E+004  0.165173618792423E-005 
      4.08000000 -0.680672314927552E+004  0.176514592228790E-005 
      4.10000000 -0.680672314916491E+004  0.187575751687342E-005 
      4.12000000 -0.680672314905835E+004  0.198231729987859E-005 
      4.14000000 -0.680672314895710E+004  0.208356773253081E-005 
      4.16000000 -0.680672314886240E+004  0.217827370448576E-005 
      4.18000000 -0.680672314877544E+004  0.226522794758600E-005 
      4.20000000 -0.680672314869736E+004  0.234330517344645E-005 
      4.22000000 -0.680672314862922E+004  0.241145201933138E-005 
      4.24000000 -0.680672314857195E+004  0.246872339767615E-005 
      4.26000000 -0.680672314852637E+004  0.251429951075692E-005 
      4.28000000 -0.680672314849316E+004  0.254751369287752E-005 
      4.30000000 -0.680672314847281E+004  0.256785705073390E-005 
      4.32000000 -0.680672314846565E+004  0.257501713311811E-005 
      4.34000000 -0.680672314847181E+004  0.256885859606632E-005 
      4.36000000 -0.680672314849120E+004  0.254946960650353E-005 
      4.38000000 -0.680672314852353E+004  0.251714405417981E-005 
      4.40000000 -0.680672314856826E+004  0.247240784706893E-005 
      4.42000000 -0.680672314862467E+004  0.241599493615196E-005 
      4.44000000 -0.680672314869180E+004  0.234886974384550E-005 
      4.46000000 -0.680672314876846E+004  0.227220860254387E-005 
      4.48000000 -0.680672314885328E+004  0.218738583352560E-005 
      4.50000000 -0.680672314894470E+004  0.209596910658901E-005 
      4.52000000 -0.680672314904097E+004  0.199969546483574E-005 
      4.54000000 -0.680672314914021E+004  0.190045663018323E-005 
      4.56000000 -0.680672314924041E+004  0.180025646669042E-005 
      4.58000000 -0.680672314933946E+004  0.170120711358729E-005 
      4.60000000 -0.680672314943519E+004  0.160547794126570E-005 
      4.62000000 -0.680672314952539E+004  0.151527853660960E-005 
      4.64000000 -0.680672314960786E+004  0.143280456540952E-005 
      4.66000000 -0.680672314968044E+004  0.136022539805733E-005 
      4.68000000 -0.680672314974104E+004  0.129962533159616E-005 
      4.70000000 -0.680672314978769E+004  0.125298348147440E-005 
      4.72000000 -0.680672314981854E+004  0.122212815129503E-005 
      4.74000000 -0.680672314983196E+004  0.120870821723466E-005 
      4.76000000 -0.680672314982652E+004  0.121415445833961E-005 
      4.78000000 -0.680672314980102E+004  0.123965480791537E-005 
      4.80000000 -0.680672314975454E+004  0.128612960491604E-005 
      4.82000000 -0.680672314968647E+004  0.135420065818122E-005 
      4.84000000 -0.680672314959649E+004  0.144417887213070E-005 
      4.86000000 -0.680672314948462E+004  0.155605341924738E-005 
      4.88000000 -0.680672314935120E+004  0.168947163183118E-005 
      4.90000000 -0.680672314919692E+004  0.184374518915173E-005 
      4.92000000 -0.680672314902282E+004  0.201784625047790E-005 
      4.94000000 -0.680672314883024E+004  0.221042524314169E-005 
      4.96000000 -0.680672314862086E+004  0.241981086253818E-005 
      4.98000000 -0.680672314839664E+004  0.264402940697754E-005 
      5.00000000 -0.680672314815982E+004  0.288084963454160E-005 
      5.02000000 -0.680672314791288E+004  0.312778508326606E-005 
      5.04000000 -0.680672314765853E+004  0.338214047478532E-005 
      5.06000000 -0.680672314739962E+004  0.364104497027779E-005 
      5.08000000 -0.680672314713917E+004  0.390150012089883E-005 
      5.10000000 -0.680672314688025E+004  0.416042085766695E-005 
      5.12000000 -0.680672314662600E+004  0.441467416116777E-005 
      5.14000000 -0.680672314637954E+004  0.466113165235136E-005 
      5.16000000 -0.680672314614395E+004  0.489672450351190E-005 
      5.18000000 -0.680672314592219E+004  0.511848056120343E-005 
      5.20000000 -0.680672314571709E+004  0.532357771043137E-005 
      5.22000000 -0.680672314553129E+004  0.550937635720378E-005 
      5.24000000 -0.680672314536719E+004  0.567347820648140E-005 
      5.26000000 -0.680672314522691E+004  0.581376106491121E-005 
      5.28000000 -0.680672314511227E+004  0.592840281604287E-005 
      5.30000000 -0.680672314502476E+004  0.601591080930374E-005 
      5.32000000 -0.680672314496551E+004  0.607516362327914E-005 
      5.34000000 -0.680672314493524E+004  0.610542498680577E-005 
      5.36000000 -0.680672314493433E+004  0.610633604503093E-005 
      5.38000000 -0.680672314496273E+004  0.607794320159939E-005 
      5.40000000 -0.680672314501998E+004  0.602068729113620E-005 
      5.42000000 -0.680672314510526E+004  0.593541363336982E-005 
      5.44000000 -0.680672314521734E+004  0.582333104324587E-005 
      5.46000000 -0.680672314535465E+004  0.568602033826200E-005 
      5.48000000 -0.680672314551528E+004  0.552538870821726E-005 
      5.50000000 -0.680672314569701E+004  0.534365811430087E-005 
      5.52000000 -0.680672314589735E+004  0.514331501847709E-005 
      5.54000000 -0.680672314611359E+004  0.492707944772210E-005 
      5.56000000 -0.680672314634281E+004  0.469785549680287E-005 
      5.58000000 -0.680672314658197E+004  0.445870039251404E-005 
      5.60000000 -0.680672314682791E+004  0.421275952857528E-005 
      5.62000000 -0.680672314707745E+004  0.396321774180428E-005 
      5.64000000 -0.680672314732740E+004  0.371327069653584E-005 
      5.66000000 -0.680672314757461E+004  0.346605527915474E-005 
      5.68000000 -0.680672314781606E+004  0.322461324857405E-005 
      5.70000000 -0.680672314804883E+004  0.299183632525548E-005 
      5.72000000 -0.680672314827024E+004  0.277043061508177E-005 
      5.74000000 -0.680672314847779E+004  0.256288180662311E-005 
      5.76000000 -0.680672314866926E+004  0.237141031428058E-005 
      5.78000000 -0.680672314884272E+004  0.219794884985781E-005 
      5.80000000 -0.680672314899656E+004  0.204410994000972E-005 
      5.82000000 -0.680672314912949E+004  0.191117819230166E-005 
      5.84000000 -0.680672314924059E+004  0.180008322641670E-005 
      5.86000000 -0.680672314932926E+004  0.171140586130825E-005 
      5.88000000 -0.680672314939530E+004  0.164536496750068E-005 
      5.90000000 -0.680672314943884E+004  0.160182829460647E-005 
      5.92000000 -0.680672314946035E+004  0.158032175205514E-005 
      5.94000000 -0.680672314946063E+004  0.158003714303403E-005 
      5.96000000 -0.680672314944080E+004  0.159986696722190E-005 
      5.98000000 -0.680672314940225E+004  0.163841602170006E-005 
      6.00000000 -0.680672314934663E+004  0.169404393762676E-005 
