# Real time calculation: 
# Eall: Total energy
# Eall0: Initial energy
# 1:Time[fs] 2:Eall[eV] 3:Eall-Eall0[eV] 
      0.00000000 -0.850763852755470E+003  0.000000000000000E+000 
      0.02000000 -0.850763852755518E+003 -0.473703873442588E-010 
      0.04000000 -0.850763852755564E+003 -0.939673806094277E-010 
      0.06000000 -0.850763852755611E+003 -0.140371025354824E-009 
      0.08000000 -0.850763852755657E+003 -0.186968018619993E-009 
      0.10000000 -0.850763852755703E+003 -0.232888292065958E-009 
      0.12000000 -0.850763852755750E+003 -0.279195262551468E-009 
      0.14000000 -0.850763852755796E+003 -0.325405558777092E-009 
      0.16000000 -0.850763852755841E+003 -0.370649112403854E-009 
      0.18000000 -0.850763852755885E+003 -0.414539226392208E-009 
      0.20000000 -0.850763852755928E+003 -0.457849294821244E-009 
      0.22000000 -0.850763852755970E+003 -0.499612575092101E-009 
      0.24000000 -0.850763852756009E+003 -0.538282279046598E-009 
      0.26000000 -0.850763852756044E+003 -0.573858406684735E-009 
      0.28000000 -0.850763852756076E+003 -0.605954260966968E-009 
      0.30000000 -0.850763852756104E+003 -0.633216402254888E-009 
      0.32000000 -0.850763852756125E+003 -0.654581413689748E-009 
      0.34000000 -0.850763852756140E+003 -0.669372575452343E-009 
      0.36000000 -0.850763852756147E+003 -0.676719819203697E-009 
      0.38000000 -0.850763852756146E+003 -0.675946425124607E-009 
      0.40000000 -0.850763852756137E+003 -0.666278999135983E-009 
      0.42000000 -0.850763852756117E+003 -0.646557450119189E-009 
      0.44000000 -0.850763852756088E+003 -0.617941869192862E-009 
      0.46000000 -0.850763852756049E+003 -0.578885468198820E-009 
      0.48000000 -0.850763852756001E+003 -0.530354989735926E-009 
      0.50000000 -0.850763852755943E+003 -0.472737130843726E-009 
      0.52000000 -0.850763852755878E+003 -0.407772028200171E-009 
      0.54000000 -0.850763852755806E+003 -0.335266333285489E-009 
      0.56000000 -0.850763852755728E+003 -0.257540228336950E-009 
      0.58000000 -0.850763852755647E+003 -0.176333850032506E-009 
      0.60000000 -0.850763852755565E+003 -0.940640548693139E-010 
      0.62000000 -0.850763852755482E+003 -0.114075626665766E-010 
      0.64000000 -0.850763852755404E+003  0.667052393215073E-010 
      0.66000000 -0.850763852755331E+003  0.139984328315279E-009 
      0.68000000 -0.850763852755266E+003  0.204949430958834E-009 
      0.70000000 -0.850763852755211E+003  0.259860410574220E-009 
      0.72000000 -0.850763852755169E+003  0.301817039364849E-009 
      0.74000000 -0.850763852755141E+003  0.329272529172542E-009 
      0.76000000 -0.850763852755129E+003  0.341066788878663E-009 
      0.78000000 -0.850763852755134E+003  0.336813121443669E-009 
      0.80000000 -0.850763852755155E+003  0.315158087229150E-009 
      0.82000000 -0.850763852755192E+003  0.278325194212492E-009 
      0.84000000 -0.850763852755245E+003  0.225057677015172E-009 
      0.86000000 -0.850763852755310E+003  0.160092574371617E-009 
      0.88000000 -0.850763852755385E+003  0.856533942592108E-010 
      0.90000000 -0.850763852755465E+003  0.522041003385709E-011 
      0.92000000 -0.850763852755546E+003 -0.752125741914966E-010 
      0.94000000 -0.850763852755621E+003 -0.150811845422538E-009 
      0.96000000 -0.850763852755684E+003 -0.213650114348596E-009 
      0.98000000 -0.850763852755728E+003 -0.257443554077064E-009 
      1.00000000 -0.850763852755743E+003 -0.272814761398976E-009 
      1.02000000 -0.850763852755721E+003 -0.250579681625140E-009 
      1.04000000 -0.850763852755653E+003 -0.182134305625681E-009 
      1.06000000 -0.850763852755528E+003 -0.574245103724280E-010 
      1.08000000 -0.850763852755337E+003  0.133990524202332E-009 
      1.10000000 -0.850763852755069E+003  0.401391527047679E-009 
      1.12000000 -0.850763852754716E+003  0.754735946931895E-009 
      1.14000000 -0.850763852754268E+003  0.120282114150463E-008 
      1.16000000 -0.850763852753716E+003  0.175473449119519E-008 
      1.18000000 -0.850763852753052E+003  0.241840328531424E-008 
      1.20000000 -0.850763852752272E+003  0.319866123685610E-008 
      1.22000000 -0.850763852751368E+003  0.410285558957213E-008 
      1.24000000 -0.850763852750338E+003  0.513282315440016E-008 
      1.26000000 -0.850763852749180E+003  0.629040074227802E-008 
      1.28000000 -0.850763852747894E+003  0.757665177006448E-008 
      1.30000000 -0.850763852746481E+003  0.898915938126237E-008 
      1.32000000 -0.850763852744948E+003  0.105221231202785E-007 
      1.34000000 -0.850763852743300E+003  0.121709026226384E-007 
      1.36000000 -0.850763852741546E+003  0.139247670454946E-007 
      1.38000000 -0.850763852739697E+003  0.157731788945195E-007 
      1.40000000 -0.850763852737768E+003  0.177021204020297E-007 
      1.42000000 -0.850763852735774E+003  0.196961236864434E-007 
      1.44000000 -0.850763852733733E+003  0.217370139869018E-007 
      1.46000000 -0.850763852731666E+003  0.238044897088290E-007 
      1.48000000 -0.850763852729593E+003  0.258775725378296E-007 
      1.50000000 -0.850763852727538E+003  0.279326739544913E-007 
      1.52000000 -0.850763852725525E+003  0.299458187423625E-007 
      1.54000000 -0.850763852723578E+003  0.318924516394318E-007 
      1.56000000 -0.850763852721723E+003  0.337470506410895E-007 
      1.58000000 -0.850763852719985E+003  0.354849638110645E-007 
      1.60000000 -0.850763852718389E+003  0.370811525160462E-007 
      1.62000000 -0.850763852716957E+003  0.385137683733005E-007 
      1.64000000 -0.850763852715711E+003  0.397590295148952E-007 
      1.66000000 -0.850763852714672E+003  0.407986645057118E-007 
      1.68000000 -0.850763852713855E+003  0.416149819561912E-007 
      1.70000000 -0.850763852713277E+003  0.421937707501302E-007 
      1.72000000 -0.850763852712946E+003  0.425245900674609E-007 
      1.74000000 -0.850763852712872E+003  0.425989325733134E-007 
      1.76000000 -0.850763852713055E+003  0.424150581310098E-007 
      1.78000000 -0.850763852713497E+003  0.419736434603692E-007 
      1.80000000 -0.850763852714191E+003  0.412800056456854E-007 
      1.82000000 -0.850763852715126E+003  0.403446821812860E-007 
      1.84000000 -0.850763852716287E+003  0.391839143428319E-007 
      1.86000000 -0.850763852717655E+003  0.378155868684020E-007 
      1.88000000 -0.850763852719205E+003  0.362654151111261E-007 
      1.90000000 -0.850763852720909E+003  0.345617246291509E-007 
      1.92000000 -0.850763852722734E+003  0.327364179282387E-007 
      1.94000000 -0.850763852724643E+003  0.308272946440052E-007 
      1.96000000 -0.850763852726597E+003  0.288735078517043E-007 
      1.98000000 -0.850763852728552E+003  0.269183676197649E-007 
      2.00000000 -0.850763852730464E+003  0.250063441077348E-007 
      2.02000000 -0.850763852732286E+003  0.231843243316588E-007 
      2.04000000 -0.850763852733970E+003  0.215003553987003E-007 
      2.06000000 -0.850763852735468E+003  0.200027744388025E-007 
      2.08000000 -0.850763852736730E+003  0.187401119304283E-007 
      2.10000000 -0.850763852737712E+003  0.177587715183231E-007 
      2.12000000 -0.850763852738366E+003  0.171042867788932E-007 
      2.14000000 -0.850763852738651E+003  0.168191943864887E-007 
      2.16000000 -0.850763852738527E+003  0.169433241361826E-007 
      2.18000000 -0.850763852737956E+003  0.175144756635905E-007 
      2.20000000 -0.850763852736907E+003  0.185631980348365E-007 
      2.22000000 -0.850763852735353E+003  0.201175267852875E-007 
      2.24000000 -0.850763852733272E+003  0.221980535322993E-007 
      2.26000000 -0.850763852730649E+003  0.248213095743125E-007 
      2.28000000 -0.850763852727473E+003  0.279970590115756E-007 
      2.30000000 -0.850763852723742E+003  0.317282987461450E-007 
      2.32000000 -0.850763852719457E+003  0.360130952928230E-007 
      2.34000000 -0.850763852714631E+003  0.408398477404234E-007 
      2.36000000 -0.850763852709277E+003  0.461938616014432E-007 
      2.38000000 -0.850763852703421E+003  0.520496148712727E-007 
      2.40000000 -0.850763852697091E+003  0.583797487343640E-007 
      2.42000000 -0.850763852690324E+003  0.651459801838021E-007 
      2.44000000 -0.850763852683164E+003  0.723067392878359E-007 
      2.46000000 -0.850763852675657E+003  0.798138822650422E-007 
      2.48000000 -0.850763852667858E+003  0.876125948100654E-007 
      2.50000000 -0.850763852659824E+003  0.956462258066122E-007 
      2.52000000 -0.850763852651620E+003  0.103850390197598E-006 
      2.54000000 -0.850763852643312E+003  0.112158962789261E-006 
      2.56000000 -0.850763852634969E+003  0.120501854743184E-006 
      2.58000000 -0.850763852626665E+003  0.128805883644633E-006 
      2.60000000 -0.850763852618473E+003  0.136997673730353E-006 
      2.62000000 -0.850763852610469E+003  0.145001335706336E-006 
      2.64000000 -0.850763852602730E+003  0.152740400233009E-006 
      2.66000000 -0.850763852595330E+003  0.160140041433222E-006 
      2.68000000 -0.850763852588344E+003  0.167126400172421E-006 
      2.70000000 -0.850763852581843E+003  0.173627357452731E-006 
      2.72000000 -0.850763852575896E+003  0.179574467898153E-006 
      2.74000000 -0.850763852570569E+003  0.184901606314924E-006 
      2.76000000 -0.850763852565921E+003  0.189549318033215E-006 
      2.78000000 -0.850763852562008E+003  0.193462305376371E-006 
      2.80000000 -0.850763852558880E+003  0.196590201054990E-006 
      2.82000000 -0.850763852556577E+003  0.198893851993820E-006 
      2.84000000 -0.850763852555133E+003  0.200337102019661E-006 
      2.86000000 -0.850763852554576E+003  0.200894622476425E-006 
      2.88000000 -0.850763852554921E+003  0.200549205345852E-006 
      2.90000000 -0.850763852556177E+003  0.199293020012890E-006 
      2.92000000 -0.850763852558342E+003  0.197128193311257E-006 
      2.94000000 -0.850763852561404E+003  0.194066809523440E-006 
      2.96000000 -0.850763852565339E+003  0.190131973797550E-006 
      2.98000000 -0.850763852570115E+003  0.185355878662130E-006 
      3.00000000 -0.850763852575688E+003  0.179782510905428E-006 
      3.02000000 -0.850763852582005E+003  0.173465911438721E-006 
      3.04000000 -0.850763852589000E+003  0.166470368644833E-006 
      3.06000000 -0.850763852596600E+003  0.158870708400915E-006 
      3.08000000 -0.850763852604721E+003  0.150749200502132E-006 
      3.10000000 -0.850763852613272E+003  0.142198942260753E-006 
      3.12000000 -0.850763852622149E+003  0.133321731672439E-006 
      3.14000000 -0.850763852631247E+003  0.124223523726025E-006 
      3.16000000 -0.850763852640451E+003  0.115019747487815E-006 
      3.18000000 -0.850763852649640E+003  0.105830665737108E-006 
      3.20000000 -0.850763852658692E+003  0.967780880413603E-007 
      3.22000000 -0.850763852667481E+003  0.879898177721415E-007 
      3.24000000 -0.850763852675877E+003  0.795936583010214E-007 
      3.26000000 -0.850763852683754E+003  0.717168329540101E-007 
      3.28000000 -0.850763852690983E+003  0.644878218224965E-007 
      3.30000000 -0.850763852697442E+003  0.580289178452368E-007 
      3.32000000 -0.850763852703010E+003  0.524606738243090E-007 
      3.34000000 -0.850763852707574E+003  0.478968753635993E-007 
      3.36000000 -0.850763852711025E+003  0.444456042856604E-007 
      3.38000000 -0.850763852713266E+003  0.422041148959380E-007 
      3.40000000 -0.850763852714210E+003  0.412605741194483E-007 
      3.42000000 -0.850763852713777E+003  0.416930947581793E-007 
      3.44000000 -0.850763852711906E+003  0.435649017780968E-007 
      3.46000000 -0.850763852708542E+003  0.469281992795391E-007 
      3.48000000 -0.850763852703651E+003  0.518200135040429E-007 
      3.50000000 -0.850763852697210E+003  0.582603560234045E-007 
      3.52000000 -0.850763852689216E+003  0.662545439219176E-007 
      3.54000000 -0.850763852679680E+003  0.757906862656164E-007 
      3.56000000 -0.850763852668630E+003  0.868404574963540E-007 
      3.58000000 -0.850763852656114E+003  0.993563905525264E-007 
      3.60000000 -0.850763852642196E+003  0.113274390399829E-006 
      3.62000000 -0.850763852626955E+003  0.128515087470895E-006 
      3.64000000 -0.850763852610492E+003  0.144978713929522E-006 
      3.66000000 -0.850763852592917E+003  0.162553417657022E-006 
      3.68000000 -0.850763852574361E+003  0.181109558470887E-006 
      3.70000000 -0.850763852554966E+003  0.200504928534824E-006 
      3.72000000 -0.850763852534889E+003  0.220581562108180E-006 
      3.74000000 -0.850763852514297E+003  0.241173469486729E-006 
      3.76000000 -0.850763852493367E+003  0.262103446752100E-006 
      3.78000000 -0.850763852472285E+003  0.283185492628273E-006 
      3.80000000 -0.850763852451242E+003  0.304228385429191E-006 
      3.82000000 -0.850763852430435E+003  0.325035973081547E-006 
      3.84000000 -0.850763852410058E+003  0.345412296860550E-006 
      3.86000000 -0.850763852390312E+003  0.365158981184914E-006 
      3.88000000 -0.850763852371388E+003  0.384082484186346E-006 
      3.90000000 -0.850763852353479E+003  0.401991874201572E-006 
      3.92000000 -0.850763852336765E+003  0.418705210273486E-006 
      3.94000000 -0.850763852321423E+003  0.434047705340212E-006 
      3.96000000 -0.850763852307613E+003  0.447858010062001E-006 
      3.98000000 -0.850763852295483E+003  0.459987342752888E-006 
      4.00000000 -0.850763852285169E+003  0.470301616214412E-006 
      4.02000000 -0.850763852276787E+003  0.478683757917848E-006 
      4.04000000 -0.850763852270434E+003  0.485036416883493E-006 
      4.06000000 -0.850763852266187E+003  0.489283123771776E-006 
      4.08000000 -0.850763852264106E+003  0.491364327238607E-006 
      4.10000000 -0.850763852264221E+003  0.491249284869342E-006 
      4.12000000 -0.850763852266546E+003  0.488924268919078E-006 
      4.14000000 -0.850763852271066E+003  0.484404070549577E-006 
      4.16000000 -0.850763852277748E+003  0.477722815774579E-006 
      4.18000000 -0.850763852286528E+003  0.468942666143191E-006 
      4.20000000 -0.850763852297326E+003  0.458144731359457E-006 
      4.22000000 -0.850763852310035E+003  0.445435159760732E-006 
      4.24000000 -0.850763852324530E+003  0.430940787975988E-006 
      4.26000000 -0.850763852340661E+003  0.414809720971369E-006 
      4.28000000 -0.850763852358263E+003  0.397207658428322E-006 
      4.30000000 -0.850763852377153E+003  0.378317894743590E-006 
      4.32000000 -0.850763852397132E+003  0.358338612149939E-006 
      4.34000000 -0.850763852417989E+003  0.337481527276522E-006 
      4.36000000 -0.850763852439501E+003  0.315969184269596E-006 
      4.38000000 -0.850763852461440E+003  0.294030314428052E-006 
      4.40000000 -0.850763852483568E+003  0.271902736431209E-006 
      4.42000000 -0.850763852505645E+003  0.249825429049508E-006 
      4.44000000 -0.850763852527431E+003  0.228039111190064E-006 
      4.46000000 -0.850763852548688E+003  0.206782568274797E-006 
      4.48000000 -0.850763852569181E+003  0.186289752012631E-006 
      4.50000000 -0.850763852588681E+003  0.166789200353938E-006 
      4.52000000 -0.850763852606971E+003  0.148499203777540E-006 
      4.54000000 -0.850763852623845E+003  0.131625291759955E-006 
      4.56000000 -0.850763852639108E+003  0.116362552957635E-006 
      4.58000000 -0.850763852652582E+003  0.102888384637470E-006 
      4.60000000 -0.850763852664107E+003  0.913639427906912E-007 
      4.62000000 -0.850763852673541E+003  0.819292117456131E-007 
      4.64000000 -0.850763852680764E+003  0.747063877667323E-007 
      4.66000000 -0.850763852685677E+003  0.697931118565338E-007 
      4.68000000 -0.850763852688205E+003  0.672657566803277E-007 
      4.70000000 -0.850763852688294E+003  0.671762363156731E-007 
      4.72000000 -0.850763852685917E+003  0.695538430633153E-007 
      4.74000000 -0.850763852681070E+003  0.744004137341923E-007 
      4.76000000 -0.850763852673775E+003  0.816957434079878E-007 
      4.78000000 -0.850763852664076E+003  0.913941051597757E-007 
      4.80000000 -0.850763852652045E+003  0.103425990196698E-006 
      4.82000000 -0.850763852637773E+003  0.117697914509444E-006 
      4.84000000 -0.850763852621374E+003  0.134095995819868E-006 
      4.86000000 -0.850763852602989E+003  0.152481603239293E-006 
      4.88000000 -0.850763852582771E+003  0.172699477906343E-006 
      4.90000000 -0.850763852560898E+003  0.194572415902645E-006 
      4.92000000 -0.850763852537562E+003  0.217908905519364E-006 
      4.94000000 -0.850763852512969E+003  0.242501290446266E-006 
      4.96000000 -0.850763852487343E+003  0.268127219885612E-006 
      4.98000000 -0.850763852460915E+003  0.294555449007754E-006 
      5.00000000 -0.850763852433926E+003  0.321544002140196E-006 
      5.02000000 -0.850763852406625E+003  0.348845006480591E-006 
      5.04000000 -0.850763852379265E+003  0.376205755513595E-006 
      5.06000000 -0.850763852352098E+003  0.403372962678307E-006 
      5.08000000 -0.850763852325380E+003  0.430091021231588E-006 
      5.10000000 -0.850763852299361E+003  0.456109158143292E-006 
      5.12000000 -0.850763852274289E+003  0.481181434096269E-006 
      5.14000000 -0.850763852250402E+003  0.505068870320081E-006 
      5.16000000 -0.850763852227926E+003  0.527544378978253E-006 
      5.18000000 -0.850763852207081E+003  0.548389572917705E-006 
      5.20000000 -0.850763852188067E+003  0.567403756374910E-006 
      5.22000000 -0.850763852171068E+003  0.584402088164968E-006 
      5.24000000 -0.850763852156254E+003  0.599216065052897E-006 
      5.26000000 -0.850763852143770E+003  0.611699998929047E-006 
      5.28000000 -0.850763852133742E+003  0.621728406604086E-006 
      5.30000000 -0.850763852126271E+003  0.629199973453654E-006 
      5.32000000 -0.850763852121434E+003  0.634036586675763E-006 
      5.34000000 -0.850763852119284E+003  0.636186428867113E-006 
      5.36000000 -0.850763852119846E+003  0.635624268045875E-006 
      5.38000000 -0.850763852123120E+003  0.632350200886307E-006 
      5.40000000 -0.850763852129079E+003  0.626391102832659E-006 
      5.42000000 -0.850763852137669E+003  0.617801788190287E-006 
      5.44000000 -0.850763852148807E+003  0.606663076640454E-006 
      5.46000000 -0.850763852162389E+003  0.593081019846256E-006 
      5.48000000 -0.850763852178284E+003  0.577186418081319E-006 
      5.50000000 -0.850763852196336E+003  0.559134433532761E-006 
      5.52000000 -0.850763852216369E+003  0.539101496724874E-006 
      5.54000000 -0.850763852238185E+003  0.517285596541905E-006 
      5.56000000 -0.850763852261569E+003  0.493901446515061E-006 
      5.58000000 -0.850763852286289E+003  0.469181451565110E-006 
      5.60000000 -0.850763852312100E+003  0.443370777615121E-006 
      5.62000000 -0.850763852338746E+003  0.416724838059716E-006 
      5.64000000 -0.850763852365960E+003  0.389510067159140E-006 
      5.66000000 -0.850763852393475E+003  0.361995316030137E-006 
      5.68000000 -0.850763852421016E+003  0.334454752873744E-006 
      5.70000000 -0.850763852448310E+003  0.307160999102841E-006 
      5.72000000 -0.850763852475088E+003  0.280382712485651E-006 
      5.74000000 -0.850763852501087E+003  0.254383620403144E-006 
      5.76000000 -0.850763852526052E+003  0.229418749552901E-006 
      5.78000000 -0.850763852549739E+003  0.205731719069833E-006 
      5.80000000 -0.850763852571922E+003  0.183548070002257E-006 
      5.82000000 -0.850763852592388E+003  0.163082709229899E-006 
      5.84000000 -0.850763852610946E+003  0.144524731605096E-006 
      5.86000000 -0.850763852627423E+003  0.128047184053046E-006 
      5.88000000 -0.850763852641673E+003  0.113797301471554E-006 
      5.90000000 -0.850763852653572E+003  0.101898536890495E-006 
      5.92000000 -0.850763852663021E+003  0.924492080321741E-007 
      5.94000000 -0.850763852669951E+003  0.855192103864887E-007 
      5.96000000 -0.850763852674319E+003  0.811517573476079E-007 
      5.98000000 -0.850763852676109E+003  0.793618334258142E-007 
      6.00000000 -0.850763852675334E+003  0.801361942475030E-007 
