# Real time calculation: 
# Eall: Total energy
# Eall0: Initial total energy
# 1:Time[fs] 2:Eall[eV] 3:Eall-Eall0[eV] 
      0.00000000 -0.865026937618314E+003  0.000000000000000E+000 
      0.02000000 -0.865026937654989E+003 -0.366741538819252E-007 
      0.04000000 -0.865026937655006E+003 -0.366915552487047E-007 
      0.06000000 -0.865026937654970E+003 -0.366553990755072E-007 
      0.08000000 -0.865026937654768E+003 -0.364539299179043E-007 
      0.10000000 -0.865026937654177E+003 -0.358623801216604E-007 
      0.12000000 -0.865026937652810E+003 -0.344956961096486E-007 
      0.14000000 -0.865026937650069E+003 -0.317547874933538E-007 
      0.16000000 -0.865026937645091E+003 -0.267762564577321E-007 
      0.18000000 -0.865026937636694E+003 -0.183799036380922E-007 
      0.20000000 -0.865026937623333E+003 -0.501894087625416E-008 
      0.22000000 -0.865026937603050E+003  0.152643822647383E-007 
      0.24000000 -0.865026937573433E+003  0.448810251521881E-007 
      0.26000000 -0.865026937531587E+003  0.867270585895074E-007 
      0.28000000 -0.865026937474106E+003  0.144208220078229E-006 
      0.30000000 -0.865026937397058E+003  0.221256541790705E-006 
      0.32000000 -0.865026937295980E+003  0.322334410889026E-006 
      0.34000000 -0.865026937165882E+003  0.452432442691298E-006 
      0.36000000 -0.865026937001261E+003  0.617053432744507E-006 
      0.38000000 -0.865026936796124E+003  0.822190605116040E-006 
      0.40000000 -0.865026936544022E+003  0.107429271298587E-005 
      0.42000000 -0.865026936238088E+003  0.138022633568519E-005 
      0.44000000 -0.865026935871087E+003  0.174722773491502E-005 
      0.46000000 -0.865026935435462E+003  0.218285219743398E-005 
      0.48000000 -0.865026934923398E+003  0.269491622385091E-005 
      0.50000000 -0.865026934326882E+003  0.329143275687074E-005 
      0.52000000 -0.865026933637763E+003  0.398055153327615E-005 
      0.54000000 -0.865026932847823E+003  0.477049112192284E-005 
      0.56000000 -0.865026931948845E+003  0.566946931827244E-005 
      0.58000000 -0.865026930932680E+003  0.668563450566799E-005 
      0.60000000 -0.865026929791322E+003  0.782699285961622E-005 
      0.62000000 -0.865026928516974E+003  0.910134019243436E-005 
      0.64000000 -0.865026927102109E+003  0.105162054954824E-004 
      0.66000000 -0.865026925539528E+003  0.120787863607573E-004 
      0.68000000 -0.865026923822409E+003  0.137959052841277E-004 
      0.70000000 -0.865026921944350E+003  0.156739649051518E-004 
      0.72000000 -0.865026919899404E+003  0.177189100140927E-004 
      0.74000000 -0.865026917682100E+003  0.199362140175223E-004 
      0.76000000 -0.865026915287458E+003  0.223308566065675E-004 
      0.78000000 -0.865026912710990E+003  0.249073247236522E-004 
      0.80000000 -0.865026909948708E+003  0.276696064720197E-004 
      0.82000000 -0.865026906997114E+003  0.306212002031123E-004 
      0.84000000 -0.865026903853178E+003  0.337651364616290E-004 
      0.86000000 -0.865026900514316E+003  0.371039987704911E-004 
      0.88000000 -0.865026896978355E+003  0.406399596903409E-004 
      0.90000000 -0.865026893243489E+003  0.443748257730729E-004 
      0.92000000 -0.865026889308233E+003  0.483100815486219E-004 
      0.94000000 -0.865026885171362E+003  0.524469520732093E-004 
      0.96000000 -0.865026880831850E+003  0.567864639308007E-004 
      0.98000000 -0.865026876288800E+003  0.613295145485507E-004 
      1.00000000 -0.865026871541368E+003  0.660769466359827E-004 
      1.02000000 -0.865026866588716E+003  0.710295983589299E-004 
      1.04000000 -0.865026861429924E+003  0.761883905397177E-004 
      1.06000000 -0.865026856063928E+003  0.815543862085079E-004 
      1.08000000 -0.865026850489465E+003  0.871288493812484E-004 
      1.10000000 -0.865026844705010E+003  0.929133046110177E-004 
      1.12000000 -0.865026838708730E+003  0.989095841650634E-004 
      1.14000000 -0.865026832498429E+003  0.105119885642661E-003 
      1.16000000 -0.865026826071521E+003  0.111546792953429E-003 
      1.18000000 -0.865026819424992E+003  0.118193322334276E-003 
      1.20000000 -0.865026812555363E+003  0.125062950964982E-003 
      1.22000000 -0.865026805458685E+003  0.132159629922547E-003 
      1.24000000 -0.865026798130523E+003  0.139487791141742E-003 
      1.26000000 -0.865026790565957E+003  0.147052357855927E-003 
      1.28000000 -0.865026782759590E+003  0.154858724102105E-003 
      1.30000000 -0.865026774705580E+003  0.162912734032636E-003 
      1.32000000 -0.865026766397646E+003  0.171220668187487E-003 
      1.34000000 -0.865026757829117E+003  0.179789197767310E-003 
      1.36000000 -0.865026748992952E+003  0.188625362881733E-003 
      1.38000000 -0.865026739881810E+003  0.197736504297332E-003 
      1.40000000 -0.865026730488096E+003  0.207130218580774E-003 
      1.42000000 -0.865026720803988E+003  0.216814326099639E-003 
      1.44000000 -0.865026710821547E+003  0.226796767290936E-003 
      1.46000000 -0.865026700532758E+003  0.237085556644159E-003 
      1.48000000 -0.865026689929624E+003  0.247688690860737E-003 
      1.50000000 -0.865026679004249E+003  0.258614065424149E-003 
      1.52000000 -0.865026667748905E+003  0.269869409151450E-003 
      1.54000000 -0.865026656156123E+003  0.281462190999286E-003 
      1.56000000 -0.865026644218768E+003  0.293399546011406E-003 
      1.58000000 -0.865026631930110E+003  0.305688204456435E-003 
      1.60000000 -0.865026619283906E+003  0.318334408591335E-003 
      1.62000000 -0.865026606274487E+003  0.331343827298031E-003 
      1.64000000 -0.865026592896832E+003  0.344721482417626E-003 
      1.66000000 -0.865026579146621E+003  0.358471693259379E-003 
      1.68000000 -0.865026565020306E+003  0.372598007961976E-003 
      1.70000000 -0.865026550515196E+003  0.387103118226834E-003 
      1.72000000 -0.865026535629483E+003  0.401988831089220E-003 
      1.74000000 -0.865026520362300E+003  0.417256014587312E-003 
      1.76000000 -0.865026504713778E+003  0.432904536277376E-003 
      1.78000000 -0.865026488685072E+003  0.448933242062096E-003 
      1.80000000 -0.865026472278383E+003  0.465339930861923E-003 
      1.82000000 -0.865026455496967E+003  0.482121347267831E-003 
      1.84000000 -0.865026438345124E+003  0.499273190241996E-003 
      1.86000000 -0.865026420828215E+003  0.516790099390056E-003 
      1.88000000 -0.865026402952623E+003  0.534665690923935E-003 
      1.90000000 -0.865026384725710E+003  0.552892604258832E-003 
      1.92000000 -0.865026366155827E+003  0.571462487512088E-003 
      1.94000000 -0.865026347252245E+003  0.590366069718854E-003 
      1.96000000 -0.865026328025084E+003  0.609593230340886E-003 
      1.98000000 -0.865026308485293E+003  0.629133021308273E-003 
      2.00000000 -0.865026288644571E+003  0.648973743198759E-003 
      2.02000000 -0.865026268515252E+003  0.669103062503616E-003 
      2.04000000 -0.865026248110279E+003  0.689508035506188E-003 
      2.06000000 -0.865026227443071E+003  0.710175243625853E-003 
      2.08000000 -0.865026206527454E+003  0.731090860316616E-003 
      2.10000000 -0.865026185377612E+003  0.752240702691156E-003 
      2.12000000 -0.865026164007905E+003  0.773610409401469E-003 
      2.14000000 -0.865026142432884E+003  0.795185430584747E-003 
      2.16000000 -0.865026120667143E+003  0.816951171327974E-003 
      2.18000000 -0.865026098725234E+003  0.838893080028204E-003 
      2.20000000 -0.865026076621654E+003  0.860996659993469E-003 
      2.22000000 -0.865026054370697E+003  0.883247617161051E-003 
      2.24000000 -0.865026031986455E+003  0.905631859227413E-003 
      2.26000000 -0.865026009482735E+003  0.928135578981409E-003 
      2.28000000 -0.865025986873014E+003  0.950745300031211E-003 
      2.30000000 -0.865025964170422E+003  0.973447892562212E-003 
      2.32000000 -0.865025941387697E+003  0.996230617807187E-003 
      2.34000000 -0.865025918537153E+003  0.101908116130224E-002 
      2.36000000 -0.865025895630699E+003  0.104198761558210E-002 
      2.38000000 -0.865025872679826E+003  0.106493848810743E-002 
      2.40000000 -0.865025849695564E+003  0.108792275018199E-002 
      2.42000000 -0.865025826688534E+003  0.111092978001150E-002 
      2.44000000 -0.865025803668963E+003  0.113394935148941E-002 
      2.46000000 -0.865025780646738E+003  0.115697157619239E-002 
      2.48000000 -0.865025757631441E+003  0.117998687370128E-002 
      2.50000000 -0.865025734632356E+003  0.120298595797004E-002 
      2.52000000 -0.865025711658608E+003  0.122595970681551E-002 
      2.54000000 -0.865025688719175E+003  0.124889913977899E-002 
      2.56000000 -0.865025665822938E+003  0.127179537616963E-002 
      2.58000000 -0.865025642978817E+003  0.129463949730357E-002 
      2.60000000 -0.865025620195807E+003  0.131742250715757E-002 
      2.62000000 -0.865025597483050E+003  0.134013526460030E-002 
      2.64000000 -0.865025574849910E+003  0.136276840431284E-002 
      2.66000000 -0.865025552306038E+003  0.138531227627057E-002 
      2.68000000 -0.865025529861456E+003  0.140775685805961E-002 
      2.70000000 -0.865025507526544E+003  0.143009177063475E-002 
      2.72000000 -0.865025485312132E+003  0.145230618280526E-002 
      2.74000000 -0.865025463229557E+003  0.147438875767736E-002 
      2.76000000 -0.865025441290671E+003  0.149632764366350E-002 
      2.78000000 -0.865025419507896E+003  0.151811041812130E-002 
      2.80000000 -0.865025397894205E+003  0.153972410949190E-002 
      2.82000000 -0.865025376463168E+003  0.156115514615934E-002 
      2.84000000 -0.865025355228955E+003  0.158238935944741E-002 
      2.86000000 -0.865025334206284E+003  0.160341203031334E-002 
      2.88000000 -0.865025313410428E+003  0.162420788644759E-002 
      2.90000000 -0.865025292857167E+003  0.164476114751735E-002 
      2.92000000 -0.865025272562747E+003  0.166505556721992E-002 
      2.94000000 -0.865025252543858E+003  0.168507445619443E-002 
      2.96000000 -0.865025232817550E+003  0.170480076458171E-002 
      2.98000000 -0.865025213401162E+003  0.172421715220979E-002 
      3.00000000 -0.865025194312262E+003  0.174330605191554E-002 
      3.02000000 -0.865025175568578E+003  0.176204973615322E-002 
      3.04000000 -0.865025157187914E+003  0.178043040003769E-002 
      3.06000000 -0.865025139188063E+003  0.179843025125147E-002 
      3.08000000 -0.865025121586700E+003  0.181603161483961E-002 
      3.10000000 -0.865025104401254E+003  0.183321706004638E-002 
      3.12000000 -0.865025087648851E+003  0.184996946354015E-002 
      3.14000000 -0.865025071346174E+003  0.186627214050377E-002 
      3.16000000 -0.865025055509380E+003  0.188210893473491E-002 
      3.18000000 -0.865025040154009E+003  0.189746430507292E-002 
      3.20000000 -0.865025025294895E+003  0.191232341975284E-002 
      3.22000000 -0.865025010946057E+003  0.192667225714000E-002 
      3.24000000 -0.865024997120662E+003  0.194049765232706E-002 
      3.26000000 -0.865024983830939E+003  0.195378737553677E-002 
      3.28000000 -0.865024971088134E+003  0.196653018016910E-002 
      3.30000000 -0.865024958902480E+003  0.197871583412370E-002 
      3.32000000 -0.865024947283093E+003  0.199033522130790E-002 
      3.34000000 -0.865024936238014E+003  0.200138029997007E-002 
      3.36000000 -0.865024925774163E+003  0.201184415152011E-002 
      3.38000000 -0.865024915897305E+003  0.202172100914508E-002 
      3.40000000 -0.865024906612080E+003  0.203100623460733E-002 
      3.42000000 -0.865024897922031E+003  0.203969628324846E-002 
      3.44000000 -0.865024889829627E+003  0.204778868774800E-002 
      3.46000000 -0.865024882336314E+003  0.205528200079561E-002 
      3.48000000 -0.865024875442636E+003  0.206217567801853E-002 
      3.50000000 -0.865024869148202E+003  0.206847011288100E-002 
      3.52000000 -0.865024863451871E+003  0.207416644352908E-002 
      3.54000000 -0.865024858351821E+003  0.207926649323931E-002 
      3.56000000 -0.865024853845570E+003  0.208377274402664E-002 
      3.58000000 -0.865024849930192E+003  0.208768812193089E-002 
      3.60000000 -0.865024846602333E+003  0.209101598164556E-002 
      3.62000000 -0.865024843858385E+003  0.209375992902387E-002 
      3.64000000 -0.865024841694568E+003  0.209592374615621E-002 
      3.66000000 -0.865024840106998E+003  0.209751131683429E-002 
      3.68000000 -0.865024839091842E+003  0.209852647235572E-002 
      3.70000000 -0.865024838645376E+003  0.209897293883648E-002 
      3.72000000 -0.865024838764074E+003  0.209885424063340E-002 
      3.74000000 -0.865024839444725E+003  0.209817358926540E-002 
      3.76000000 -0.865024840684510E+003  0.209693380394723E-002 
      3.78000000 -0.865024842481015E+003  0.209513729989194E-002 
      3.80000000 -0.865024844832324E+003  0.209278598999310E-002 
      3.82000000 -0.865024847737064E+003  0.208988125040880E-002 
      3.84000000 -0.865024851194392E+003  0.208642392210844E-002 
      3.86000000 -0.865024855203960E+003  0.208241435456945E-002 
      3.88000000 -0.865024859765937E+003  0.207785237764515E-002 
      3.90000000 -0.865024864881024E+003  0.207273729064049E-002 
      3.92000000 -0.865024870550350E+003  0.206706796420677E-002 
      3.94000000 -0.865024876775458E+003  0.206084285667958E-002 
      3.96000000 -0.865024883558255E+003  0.205406005922564E-002 
      3.98000000 -0.865024890900870E+003  0.204671744472122E-002 
      4.00000000 -0.865024898805657E+003  0.203881265711793E-002 
      4.02000000 -0.865024907275102E+003  0.203034321217731E-002 
      4.04000000 -0.865024916311633E+003  0.202130668173199E-002 
      4.06000000 -0.865024925917631E+003  0.201170068353484E-002 
      4.08000000 -0.865024936095217E+003  0.200152309693930E-002 
      4.10000000 -0.865024946846176E+003  0.199077213801525E-002 
      4.12000000 -0.865024958171887E+003  0.197944642722102E-002 
      4.14000000 -0.865024970073107E+003  0.196754520730710E-002 
      4.16000000 -0.865024982549930E+003  0.195506838478951E-002 
      4.18000000 -0.865024995601641E+003  0.194201667341430E-002 
      4.20000000 -0.865025009226633E+003  0.192839168174447E-002 
      4.22000000 -0.865025023422323E+003  0.191419599127280E-002 
      4.24000000 -0.865025038185049E+003  0.189943326547036E-002 
      4.26000000 -0.865025053510029E+003  0.188410828565269E-002 
      4.28000000 -0.865025069391268E+003  0.186822704639730E-002 
      4.30000000 -0.865025085821537E+003  0.185179677700535E-002 
      4.32000000 -0.865025102792351E+003  0.183482596315667E-002 
      4.34000000 -0.865025120293873E+003  0.181732444165056E-002 
      4.36000000 -0.865025138314972E+003  0.179930334278790E-002 
      4.38000000 -0.865025156843187E+003  0.178077512730074E-002 
      4.40000000 -0.865025175864706E+003  0.176175360858739E-002 
      4.42000000 -0.865025195364425E+003  0.174225388948743E-002 
      4.44000000 -0.865025215325963E+003  0.172229235145418E-002 
      4.46000000 -0.865025235731709E+003  0.170188660583092E-002 
      4.48000000 -0.865025256562893E+003  0.168105542134517E-002 
      4.50000000 -0.865025277799647E+003  0.165981866707085E-002 
      4.52000000 -0.865025299421075E+003  0.163819723914925E-002 
      4.54000000 -0.865025321405348E+003  0.161621296653158E-002 
      4.56000000 -0.865025343729824E+003  0.159388849061951E-002 
      4.58000000 -0.865025366371112E+003  0.157124720204026E-002 
      4.60000000 -0.865025389305240E+003  0.154831307485018E-002 
      4.62000000 -0.865025412507771E+003  0.152511054366181E-002 
      4.64000000 -0.865025435953889E+003  0.150166442514435E-002 
      4.66000000 -0.865025459618586E+003  0.147799972892885E-002 
      4.68000000 -0.865025483476723E+003  0.145414159177298E-002 
      4.70000000 -0.865025507503145E+003  0.143011516928591E-002 
      4.72000000 -0.865025531672852E+003  0.140594546201130E-002 
      4.74000000 -0.865025555961054E+003  0.138165726051629E-002 
      4.76000000 -0.865025580343286E+003  0.135727502802902E-002 
      4.78000000 -0.865025604795543E+003  0.133282277186178E-002 
      4.80000000 -0.865025629294301E+003  0.130832401324869E-002 
      4.82000000 -0.865025653816646E+003  0.128380166843638E-002 
      4.84000000 -0.865025678340296E+003  0.125927801842489E-002 
      4.86000000 -0.865025702843673E+003  0.123477464177909E-002 
      4.88000000 -0.865025727305919E+003  0.121031239510048E-002 
      4.90000000 -0.865025751706920E+003  0.118591139485244E-002 
      4.92000000 -0.865025776027326E+003  0.116159098845458E-002 
      4.94000000 -0.865025800248482E+003  0.113736983200893E-002 
      4.96000000 -0.865025824352433E+003  0.111326588140579E-002 
      4.98000000 -0.865025848321890E+003  0.108929642412969E-002 
      5.00000000 -0.865025872140165E+003  0.106547814925145E-002 
      5.02000000 -0.865025895791101E+003  0.104182721297338E-002 
      5.04000000 -0.865025919259057E+003  0.101835925728740E-002 
      5.06000000 -0.865025942528850E+003  0.995089464402670E-003 
      5.08000000 -0.865025965585702E+003  0.972032612043217E-003 
      5.10000000 -0.865025988415217E+003  0.949203097133177E-003 
      5.12000000 -0.865026011003328E+003  0.926614986164059E-003 
      5.14000000 -0.865026033336275E+003  0.904282039363319E-003 
      5.16000000 -0.865026055400571E+003  0.882217742983558E-003 
      5.18000000 -0.865026077182973E+003  0.860435340915011E-003 
      5.20000000 -0.865026098670492E+003  0.838947822601259E-003 
      5.22000000 -0.865026119850355E+003  0.817767959582099E-003 
      5.24000000 -0.865026140709968E+003  0.796908346870135E-003 
      5.26000000 -0.865026161236947E+003  0.776381367084616E-003 
      5.28000000 -0.865026181419085E+003  0.756199229024476E-003 
      5.30000000 -0.865026201244319E+003  0.736373995703864E-003 
      5.32000000 -0.865026220700739E+003  0.716917574878065E-003 
      5.34000000 -0.865026239776538E+003  0.697841776081321E-003 
      5.36000000 -0.865026258460000E+003  0.679158314880489E-003 
      5.38000000 -0.865026276739471E+003  0.660878843037416E-003 
      5.40000000 -0.865026294603317E+003  0.643014997909485E-003 
      5.42000000 -0.865026312039901E+003  0.625578413663828E-003 
      5.44000000 -0.865026329037542E+003  0.608580772031311E-003 
      5.46000000 -0.865026345584493E+003  0.592033821544717E-003 
      5.48000000 -0.865026361668925E+003  0.575949389139651E-003 
      5.50000000 -0.865026377278896E+003  0.560339418630899E-003 
      5.52000000 -0.865026392402361E+003  0.545215953021038E-003 
      5.54000000 -0.865026407027182E+003  0.530591132470277E-003 
      5.56000000 -0.865026421141129E+003  0.516477185402422E-003 
      5.58000000 -0.865026434731929E+003  0.502886384904789E-003 
      5.60000000 -0.865026447787295E+003  0.489831019919271E-003 
      5.62000000 -0.865026460294987E+003  0.477323327183663E-003 
      5.64000000 -0.865026472242884E+003  0.465375430810245E-003 
      5.66000000 -0.865026483619038E+003  0.453999276740637E-003 
      5.68000000 -0.865026494411766E+003  0.443206548059146E-003 
      5.70000000 -0.865026504609732E+003  0.433008582336276E-003 
      5.72000000 -0.865026514202019E+003  0.423416294869360E-003 
      5.74000000 -0.865026523178234E+003  0.414440080171496E-003 
      5.76000000 -0.865026531528586E+003  0.406089728444983E-003 
      5.78000000 -0.865026539243953E+003  0.398374361679636E-003 
      5.80000000 -0.865026546315972E+003  0.391302342392282E-003 
      5.82000000 -0.865026552737094E+003  0.384881220842620E-003 
      5.84000000 -0.865026558500628E+003  0.379117686599410E-003 
      5.86000000 -0.865026563600792E+003  0.374017522426856E-003 
      5.88000000 -0.865026568032721E+003  0.369585593650435E-003 
      5.90000000 -0.865026571792483E+003  0.365825831915623E-003 
      5.92000000 -0.865026574877071E+003  0.362741243598553E-003 
      5.94000000 -0.865026577284384E+003  0.360333930687659E-003 
      5.96000000 -0.865026579013193E+003  0.358605121429412E-003 
      5.98000000 -0.865026580063100E+003  0.357555214605134E-003 
      6.00000000 -0.865026580434485E+003  0.357183828931544E-003 
