# Real time calculation: 
# Eall: Total energy
# Eall0: Initial total energy
# 1:Time[fs] 2:Eall[eV] 3:Eall-Eall0[eV] 
      0.00000000 -0.859264512355206E+003  0.000000000000000E+000 
      0.02000000 -0.859264556000454E+003 -0.436452489155793E-004 
      0.04000000 -0.859264556016998E+003 -0.436617929750222E-004 
      0.06000000 -0.859264556014198E+003 -0.436589927084103E-004 
      0.08000000 -0.859264555988360E+003 -0.436331542889477E-004 
      0.10000000 -0.859264555897696E+003 -0.435424902677986E-004 
      0.12000000 -0.859264555658463E+003 -0.433032579207762E-004 
      0.14000000 -0.859264555128172E+003 -0.427729661560062E-004 
      0.16000000 -0.859264554088980E+003 -0.417337746100196E-004 
      0.18000000 -0.859264552232998E+003 -0.398777924897258E-004 
      0.20000000 -0.859264549150829E+003 -0.367956237360326E-004 
      0.22000000 -0.859264544324355E+003 -0.319691499036493E-004 
      0.24000000 -0.859264537124645E+003 -0.247694399669132E-004 
      0.26000000 -0.859264526815776E+003 -0.144605709832147E-004 
      0.28000000 -0.859264512565007E+003 -0.209801705411044E-006 
      0.30000000 -0.859264493459469E+003  0.188957364138565E-004 
      0.32000000 -0.859264468529302E+003  0.438259035249832E-004 
      0.34000000 -0.859264436776706E+003  0.755784990261684E-004 
      0.36000000 -0.859264397210190E+003  0.115145015673593E-003 
      0.38000000 -0.859264348882941E+003  0.163472264733960E-003 
      0.40000000 -0.859264290933914E+003  0.221421291067501E-003 
      0.42000000 -0.859264222630147E+003  0.289725058127708E-003 
      0.44000000 -0.859264143408431E+003  0.368946774781471E-003 
      0.46000000 -0.859264052914808E+003  0.459440397880110E-003 
      0.48000000 -0.859263951040176E+003  0.561315029546318E-003 
      0.50000000 -0.859263837950209E+003  0.674404996974092E-003 
      0.52000000 -0.859263714108022E+003  0.798247183088192E-003 
      0.54000000 -0.859263580288339E+003  0.932066866278590E-003 
      0.56000000 -0.859263437582172E+003  0.107477303343901E-002 
      0.58000000 -0.859263287390977E+003  0.122496422885631E-002 
      0.60000000 -0.859263131409830E+003  0.138094537562841E-002 
      0.62000000 -0.859262971599240E+003  0.154075596587842E-002 
      0.64000000 -0.859262810145097E+003  0.170221010864692E-002 
      0.66000000 -0.859262649407288E+003  0.186294791777143E-002 
      0.68000000 -0.859262491857103E+003  0.202049810218594E-002 
      0.70000000 -0.859262340004724E+003  0.217235048147657E-002 
      0.72000000 -0.859262196317420E+003  0.231603778525975E-002 
      0.74000000 -0.859262063130534E+003  0.244922467103413E-002 
      0.76000000 -0.859261942552607E+003  0.256980259875242E-002 
      0.78000000 -0.859261836367130E+003  0.267598807507124E-002 
      0.80000000 -0.859261745932995E+003  0.276642221053413E-002 
      0.82000000 -0.859261672086045E+003  0.284026916074687E-002 
      0.84000000 -0.859261615044339E+003  0.289731086676550E-002 
      0.86000000 -0.859261574319363E+003  0.293803584209001E-002 
      0.88000000 -0.859261548636122E+003  0.296371908331754E-002 
      0.90000000 -0.859261535864184E+003  0.297649102189818E-002 
      0.92000000 -0.859261532962330E+003  0.297939287585249E-002 
      0.94000000 -0.859261535938859E+003  0.297641634663952E-002 
      0.96000000 -0.859261539829394E+003  0.297252581198990E-002 
      0.98000000 -0.859261538694021E+003  0.297366118408033E-002 
      1.00000000 -0.859261525634890E+003  0.298672031588170E-002 
      1.02000000 -0.859261492835254E+003  0.301951995104197E-002 
      1.04000000 -0.859261431620448E+003  0.308073475713415E-002 
      1.06000000 -0.859261332540858E+003  0.317981434743224E-002 
      1.08000000 -0.859261185476535E+003  0.332687867008126E-002 
      1.10000000 -0.859260979762701E+003  0.353259250489639E-002 
      1.12000000 -0.859260704334776E+003  0.380802042925463E-002 
      1.14000000 -0.859260347891226E+003  0.416446397977813E-002 
      1.16000000 -0.859259899072354E+003  0.461328285155042E-002 
      1.18000000 -0.859259346652358E+003  0.516570284793189E-002 
      1.20000000 -0.859258679741897E+003  0.583261330815559E-002 
      1.22000000 -0.859257887998003E+003  0.662435720218032E-002 
      1.24000000 -0.859256961837574E+003  0.755051763138816E-002 
      1.26000000 -0.859255892650820E+003  0.861970438583636E-002 
      1.28000000 -0.859254673011083E+003  0.983934412215371E-002 
      1.30000000 -0.859253296876006E+003  0.112154791996802E-001 
      1.32000000 -0.859251759777419E+003  0.127525777865054E-001 
      1.34000000 -0.859250058994698E+003  0.144533605071491E-001 
      1.36000000 -0.859248193707970E+003  0.163186472352242E-001 
      1.38000000 -0.859246165127944E+003  0.183472272612598E-001 
      1.40000000 -0.859243976597901E+003  0.205357573043533E-001 
      1.42000000 -0.859241633665750E+003  0.228786894556243E-001 
      1.44000000 -0.859239144122284E+003  0.253682329212131E-001 
      1.46000000 -0.859236518004700E+003  0.279943505050776E-001 
      1.48000000 -0.859233767562804E+003  0.307447924011912E-001 
      1.50000000 -0.859230907186332E+003  0.336051688735411E-001 
      1.52000000 -0.859227953294316E+003  0.365590608899577E-001 
      1.54000000 -0.859224924184649E+003  0.395881705560612E-001 
      1.56000000 -0.859221839845407E+003  0.426725097987641E-001 
      1.58000000 -0.859218721728844E+003  0.457906263613023E-001 
      1.60000000 -0.859215592489996E+003  0.489198652094667E-001 
      1.62000000 -0.859212475692273E+003  0.520366629320840E-001 
      1.64000000 -0.859209395483631E+003  0.551168715741681E-001 
      1.66000000 -0.859206376246232E+003  0.581361089736106E-001 
      1.68000000 -0.859203442225134E+003  0.610701300719317E-001 
      1.70000000 -0.859200617139472E+003  0.638952157332234E-001 
      1.72000000 -0.859197923782439E+003  0.665885727660920E-001 
      1.74000000 -0.859195383614367E+003  0.691287408386690E-001 
      1.76000000 -0.859193016355540E+003  0.714959996652769E-001 
      1.78000000 -0.859190839584249E+003  0.736727709560565E-001 
      1.80000000 -0.859188868346209E+003  0.756440089961549E-001 
      1.82000000 -0.859187114781046E+003  0.773975741594892E-001 
      1.84000000 -0.859185587772166E+003  0.789245830393280E-001 
      1.86000000 -0.859184292624320E+003  0.802197308857562E-001 
      1.88000000 -0.859183230775890E+003  0.812815793158136E-001 
      1.90000000 -0.859182399549632E+003  0.821128055729927E-001 
      1.92000000 -0.859181791946954E+003  0.827204082514169E-001 
      1.94000000 -0.859181396490662E+003  0.831158645432919E-001 
      1.96000000 -0.859181197119094E+003  0.833152361115276E-001 
      1.98000000 -0.859181173135828E+003  0.833392193770783E-001 
      2.00000000 -0.859181299217280E+003  0.832131379258558E-001 
      2.02000000 -0.859181545480762E+003  0.829668744435739E-001 
      2.04000000 -0.859181877614862E+003  0.826347403434510E-001 
      2.06000000 -0.859182257072861E+003  0.822552823445087E-001 
      2.08000000 -0.859182641329910E+003  0.818710252955146E-001 
      2.10000000 -0.859182984203475E+003  0.815281517306505E-001 
      2.12000000 -0.859183236236178E+003  0.812761190274554E-001 
      2.14000000 -0.859183345139209E+003  0.811672159961212E-001 
      2.16000000 -0.859183256293783E+003  0.812560614221799E-001 
      2.18000000 -0.859182913307281E+003  0.815990479244279E-001 
      2.20000000 -0.859182258619898E+003  0.822537353078010E-001 
      2.22000000 -0.859181234156655E+003  0.832781985505955E-001 
      2.24000000 -0.859179782018921E+003  0.847303362843033E-001 
      2.26000000 -0.859177845208122E+003  0.866671470839155E-001 
      2.28000000 -0.859175368374301E+003  0.891439809045298E-001 
      2.30000000 -0.859172298580324E+003  0.922137748814772E-001 
      2.32000000 -0.859168586072294E+003  0.959262829113931E-001 
      2.34000000 -0.859164185046053E+003  0.100327309152077E+000 
      2.36000000 -0.859159054398280E+003  0.105457956925750E+000 
      2.38000000 -0.859153158451554E+003  0.111353903651859E+000 
      2.40000000 -0.859146467640587E+003  0.118044714618669E+000 
      2.42000000 -0.859138959147724E+003  0.125553207481961E+000 
      2.44000000 -0.859130617476550E+003  0.133894878655372E+000 
      2.46000000 -0.859121434951019E+003  0.143077404186602E+000 
      2.48000000 -0.859111412129474E+003  0.153100225731239E+000 
      2.50000000 -0.859100558123591E+003  0.163954231614709E+000 
      2.52000000 -0.859088890813060E+003  0.175621542145717E+000 
      2.54000000 -0.859076436948391E+003  0.188075406814963E+000 
      2.56000000 -0.859063232135996E+003  0.201280219209374E+000 
      2.58000000 -0.859049320702218E+003  0.215191652987155E+000 
      2.60000000 -0.859034755432778E+003  0.229756922427585E+000 
      2.62000000 -0.859019597188354E+003  0.244915166851086E+000 
      2.64000000 -0.859003914401322E+003  0.260597953883863E+000 
      2.66000000 -0.858987782452580E+003  0.276729902625404E+000 
      2.68000000 -0.858971282941989E+003  0.293229413216924E+000 
      2.70000000 -0.858954502855964E+003  0.310009499241648E+000 
      2.72000000 -0.858937533648164E+003  0.326978707041137E+000 
      2.74000000 -0.858920470242284E+003  0.344042112921595E+000 
      2.76000000 -0.858903409973080E+003  0.361102382125839E+000 
      2.78000000 -0.858886451481027E+003  0.378060874178359E+000 
      2.80000000 -0.858869693574383E+003  0.394818780822570E+000 
      2.82000000 -0.858853234077771E+003  0.411278277434638E+000 
      2.84000000 -0.858837168681085E+003  0.427343674120122E+000 
      2.86000000 -0.858821589804610E+003  0.442922550595156E+000 
      2.88000000 -0.858806585495056E+003  0.457926860149165E+000 
      2.90000000 -0.858792238364467E+003  0.472273990738064E+000 
      2.92000000 -0.858778624584041E+003  0.485887771164445E+000 
      2.94000000 -0.858765812942435E+003  0.498699412770615E+000 
      2.96000000 -0.858753863976759E+003  0.510648378446421E+000 
      2.98000000 -0.858742829182807E+003  0.521683172398690E+000 
      3.00000000 -0.858732750306863E+003  0.531762048342295E+000 
      3.02000000 -0.858723658726600E+003  0.540853628605009E+000 
      3.04000000 -0.858715574918207E+003  0.548937436998735E+000 
      3.06000000 -0.858708508014313E+003  0.556004340892143E+000 
      3.08000000 -0.858702455452349E+003  0.562056902856425E+000 
      3.10000000 -0.858697402712976E+003  0.567109642229205E+000 
      3.12000000 -0.858693323151686E+003  0.571189203519644E+000 
      3.14000000 -0.858690177923008E+003  0.574334432197103E+000 
      3.16000000 -0.858687916001008E+003  0.576596354197065E+000 
      3.18000000 -0.858686474298225E+003  0.578038056980283E+000 
      3.20000000 -0.858685777888054E+003  0.578734467151140E+000 
      3.22000000 -0.858685740334738E+003  0.578772020467218E+000 
      3.24000000 -0.858686264136567E+003  0.578248218638863E+000 
      3.26000000 -0.858687241289119E+003  0.577271066086477E+000 
      3.28000000 -0.858688553973079E+003  0.575958382126849E+000 
      3.30000000 -0.858690075372836E+003  0.574436982369162E+000 
      3.32000000 -0.858691670630279E+003  0.572841724926939E+000 
      3.34000000 -0.858693197935302E+003  0.571314419903487E+000 
      3.36000000 -0.858694509754581E+003  0.570002600624445E+000 
      3.38000000 -0.858695454195542E+003  0.569058159664037E+000 
      3.40000000 -0.858695876500022E+003  0.568635855183095E+000 
      3.42000000 -0.858695620658715E+003  0.568891696490374E+000 
      3.44000000 -0.858694531132882E+003  0.569981222323683E+000 
      3.46000000 -0.858692454666254E+003  0.572057688951315E+000 
      3.48000000 -0.858689242165265E+003  0.575270189940066E+000 
      3.50000000 -0.858684750622236E+003  0.579761732969804E+000 
      3.52000000 -0.858678845051718E+003  0.585667303487685E+000 
      3.54000000 -0.858671400407324E+003  0.593111947881666E+000 
      3.56000000 -0.858662303442967E+003  0.602208912238629E+000 
      3.58000000 -0.858651454481825E+003  0.613057873380700E+000 
      3.60000000 -0.858638769053409E+003  0.625743301796377E+000 
      3.62000000 -0.858624179361291E+003  0.640332993914131E+000 
      3.64000000 -0.858607635544377E+003  0.656876810828044E+000 
      3.66000000 -0.858589106695183E+003  0.675405660022609E+000 
      3.68000000 -0.858568581606614E+003  0.695930748591623E+000 
      3.70000000 -0.858546069218231E+003  0.718443136974531E+000 
      3.72000000 -0.858521598743243E+003  0.742913611962119E+000 
      3.74000000 -0.858495219463400E+003  0.769292891805267E+000 
      3.76000000 -0.858467000184813E+003  0.797512170392517E+000 
      3.78000000 -0.858437028362205E+003  0.827483993000544E+000 
      3.80000000 -0.858405408902826E+003  0.859103452379802E+000 
      3.82000000 -0.858372262674824E+003  0.892249680381418E+000 
      3.84000000 -0.858337724753820E+003  0.926787601385128E+000 
      3.86000000 -0.858301942449547E+003  0.962569905657967E+000 
      3.88000000 -0.858265073164099E+003  0.999439191105986E+000 
      3.90000000 -0.858227282136790E+003  0.103723021841521E+001 
      3.92000000 -0.858188740141646E+003  0.107577221355919E+001 
      3.94000000 -0.858149621196892E+003  0.111489115831360E+001 
      3.96000000 -0.858110100354742E+003  0.115441200046361E+001 
      3.98000000 -0.858070351630747E+003  0.119416072445890E+001 
      4.00000000 -0.858030546128775E+003  0.123396622643089E+001 
      4.02000000 -0.857990850407451E+003  0.127366194775479E+001 
      4.04000000 -0.857951425125184E+003  0.131308723002119E+001 
      4.06000000 -0.857912423984526E+003  0.135208837067959E+001 
      4.08000000 -0.857873992981832E+003  0.139051937337349E+001 
      4.10000000 -0.857836269956050E+003  0.142824239915574E+001 
      4.12000000 -0.857799384411567E+003  0.146512794363819E+001 
      4.14000000 -0.857763457573101E+003  0.150105478210492E+001 
      4.16000000 -0.857728602622820E+003  0.153590973238590E+001 
      4.18000000 -0.857694925055375E+003  0.156958729983029E+001 
      4.20000000 -0.857662523080457E+003  0.160198927474858E+001 
      4.22000000 -0.857631487999207E+003  0.163302435599884E+001 
      4.24000000 -0.857601904481027E+003  0.166260787417852E+001 
      4.26000000 -0.857573850675445E+003  0.169066167976004E+001 
      4.28000000 -0.857547398096256E+003  0.171711425894911E+001 
      4.30000000 -0.857522611237972E+003  0.174190111723396E+001 
      4.32000000 -0.857499546892913E+003  0.176496546229248E+001 
      4.34000000 -0.857478253161457E+003  0.178625919374825E+001 
      4.36000000 -0.857458768165310E+003  0.180574418989566E+001 
      4.38000000 -0.857441118498414E+003  0.182339385679149E+001 
      4.40000000 -0.857425317464493E+003  0.183919489071245E+001 
      4.42000000 -0.857411363176707E+003  0.185314917849890E+001 
      4.44000000 -0.857399236600703E+003  0.186527575450278E+001 
      4.46000000 -0.857388899641580E+003  0.187561271362520E+001 
      4.48000000 -0.857380293375767E+003  0.188421897943886E+001 
      4.50000000 -0.857373336534894E+003  0.189117582031142E+001 
      4.52000000 -0.857367924341630E+003  0.189658801357537E+001 
      4.54000000 -0.857363927791987E+003  0.190058456321886E+001 
      4.56000000 -0.857361193461028E+003  0.190331889417768E+001 
      4.58000000 -0.857359543895250E+003  0.190496845995539E+001 
      4.60000000 -0.857358778629125E+003  0.190573372608072E+001 
      4.62000000 -0.857358675843755E+003  0.190583651145014E+001 
      4.64000000 -0.857358994659271E+003  0.190551769593436E+001 
      4.66000000 -0.857359478027533E+003  0.190503432767243E+001 
      4.68000000 -0.857359856170247E+003  0.190465618495822E+001 
      4.70000000 -0.857359850485490E+003  0.190466186971541E+001 
      4.72000000 -0.857359177829228E+003  0.190533452597730E+001 
      4.74000000 -0.857357555065085E+003  0.190695729012020E+001 
      4.76000000 -0.857354703767053E+003  0.190980858815256E+001 
      4.78000000 -0.857350354956024E+003  0.191415739918107E+001 
      4.80000000 -0.857344253750702E+003  0.192025860450387E+001 
      4.82000000 -0.857336163818702E+003  0.192834853650363E+001 
      4.84000000 -0.857325871519251E+003  0.193864083595489E+001 
      4.86000000 -0.857313189640552E+003  0.195132271465358E+001 
      4.88000000 -0.857297960641658E+003  0.196655171354707E+001 
      4.90000000 -0.857280059326668E+003  0.198445302853741E+001 
      4.92000000 -0.857259394885254E+003  0.200511746995103E+001 
      4.94000000 -0.857235912250947E+003  0.202860010425852E+001 
      4.96000000 -0.857209592738638E+003  0.205491961656735E+001 
      4.98000000 -0.857180453941908E+003  0.208405841329794E+001 
      5.00000000 -0.857148548881690E+003  0.211596347351511E+001 
      5.02000000 -0.857113964423274E+003  0.215054793193126E+001 
      5.04000000 -0.857076818989946E+003  0.218769336525976E+001 
      5.06000000 -0.857037259632451E+003  0.222725272275432E+001 
      5.08000000 -0.856995458533013E+003  0.226905382219228E+001 
      5.10000000 -0.856951609043568E+003  0.231290331163740E+001 
      5.12000000 -0.856905921387019E+003  0.235859096818688E+001 
      5.14000000 -0.856858618159239E+003  0.240589419596698E+001 
      5.16000000 -0.856809929790901E+003  0.245458256430405E+001 
      5.18000000 -0.856760090130192E+003  0.250442222501328E+001 
      5.20000000 -0.856709332301248E+003  0.255518005395782E+001 
      5.22000000 -0.856657884993135E+003  0.260662736207094E+001 
      5.24000000 -0.856605969296039E+003  0.265854305916684E+001 
      5.26000000 -0.856553796186933E+003  0.271071616827201E+001 
      5.28000000 -0.856501564722125E+003  0.276294763308060E+001 
      5.30000000 -0.856449460955892E+003  0.281505139931388E+001 
      5.32000000 -0.856397657561243E+003  0.286685479396277E+001 
      5.34000000 -0.856346314097153E+003  0.291819825805265E+001 
      5.36000000 -0.856295577820563E+003  0.296893453464245E+001 
      5.38000000 -0.856245584927372E+003  0.301892742783318E+001 
      5.40000000 -0.856196462084770E+003  0.306805027043549E+001 
      5.42000000 -0.856148328112463E+003  0.311618424274222E+001 
      5.44000000 -0.856101295676456E+003  0.316321667874975E+001 
      5.46000000 -0.856055472869030E+003  0.320903948617500E+001 
      5.48000000 -0.856010964569630E+003  0.325354778557569E+001 
      5.50000000 -0.855967873500407E+003  0.329663885479830E+001 
      5.52000000 -0.855926300910554E+003  0.333821144465157E+001 
      5.54000000 -0.855886346845900E+003  0.337816550930579E+001 
      5.56000000 -0.855848109976274E+003  0.341640237893098E+001 
      5.58000000 -0.855811686964032E+003  0.345282539117309E+001 
      5.60000000 -0.855777171374543E+003  0.348734098066261E+001 
      5.62000000 -0.855744652140411E+003  0.351986021479449E+001 
      5.64000000 -0.855714211608630E+003  0.355030074657528E+001 
      5.66000000 -0.855685923216309E+003  0.357858913889612E+001 
      5.68000000 -0.855659848867026E+003  0.360466348817920E+001 
      5.70000000 -0.855636036098802E+003  0.362847625640324E+001 
      5.72000000 -0.855614515166451E+003  0.364999718875420E+001 
      5.74000000 -0.855595296170530E+003  0.366921618467544E+001 
      5.76000000 -0.855578366388121E+003  0.368614596708404E+001 
      5.78000000 -0.855563687957372E+003  0.370082439783383E+001 
      5.80000000 -0.855551196061364E+003  0.371331629384108E+001 
      5.82000000 -0.855540797738132E+003  0.372371461707390E+001 
      5.84000000 -0.855532371416846E+003  0.373214093835939E+001 
      5.86000000 -0.855525767242185E+003  0.373874511301999E+001 
      5.88000000 -0.855520808214860E+003  0.374370414034561E+001 
      5.90000000 -0.855517292135246E+003  0.374722021995991E+001 
      5.92000000 -0.855514994305380E+003  0.374951804982523E+001 
      5.94000000 -0.855513670912911E+003  0.375084144229450E+001 
      5.96000000 -0.855513062999054E+003  0.375144935615122E+001 
      5.98000000 -0.855512900895547E+003  0.375161145965828E+001 
      6.00000000 -0.855512909004588E+003  0.375160335061711E+001 
