# Real time calculation: 
# Eall: Total energy
# Eall0: Initial total energy
# 1:Time[fs] 2:Eall[eV] 3:Eall-Eall0[eV] 
      0.00000000 -0.233330220298704E+005  0.000000000000000E+000 
      0.02000000 -0.233330220302547E+005 -0.384358295849802E-006 
      0.04000000 -0.233330220303032E+005 -0.432803700963996E-006 
      0.06000000 -0.233330220303149E+005 -0.444559290966163E-006 
      0.08000000 -0.233330220302765E+005 -0.406143260269607E-006 
      0.10000000 -0.233330220301414E+005 -0.270972536702584E-006 
      0.12000000 -0.233330220298223E+005  0.480432401930671E-007 
      0.14000000 -0.233330220291811E+005  0.689236428979689E-006 
      0.16000000 -0.233330220280164E+005  0.185398028639440E-005 
      0.18000000 -0.233330220260513E+005  0.381911276983561E-005 
      0.20000000 -0.233330220229214E+005  0.694895198777574E-005 
      0.22000000 -0.233330220181633E+005  0.117070765383739E-004 
      0.24000000 -0.233330220112033E+005  0.186670633128701E-004 
      0.26000000 -0.233330220013484E+005  0.285220311785210E-004 
      0.28000000 -0.233330219877779E+005  0.420925234110543E-004 
      0.30000000 -0.233330219695376E+005  0.603328185903536E-004 
      0.32000000 -0.233330219455352E+005  0.843351749871652E-004 
      0.34000000 -0.233330219145381E+005  0.115332280675540E-003 
      0.36000000 -0.233330218751727E+005  0.154697655697755E-003 
      0.38000000 -0.233330218259262E+005  0.203944160960528E-003 
      0.40000000 -0.233330217651497E+005  0.264720647891868E-003 
      0.42000000 -0.233330216910635E+005  0.338806912818105E-003 
      0.44000000 -0.233330216017630E+005  0.428107423191114E-003 
      0.46000000 -0.233330214952270E+005  0.534643410407259E-003 
      0.48000000 -0.233330213693262E+005  0.660544158296478E-003 
      0.50000000 -0.233330212218334E+005  0.808036992309331E-003 
      0.52000000 -0.233330210504337E+005  0.979436643801617E-003 
      0.54000000 -0.233330208527365E+005  0.117713385329923E-002 
      0.56000000 -0.233330206262872E+005  0.140358320346250E-002 
      0.58000000 -0.233330203685798E+005  0.166129062413147E-002 
      0.60000000 -0.233330200770698E+005  0.195280059110707E-002 
      0.62000000 -0.233330197491869E+005  0.228068347961115E-002 
      0.64000000 -0.233330193823472E+005  0.264752321782341E-002 
      0.66000000 -0.233330189739651E+005  0.305590526215025E-002 
      0.68000000 -0.233330185214648E+005  0.350840562430957E-002 
      0.70000000 -0.233330180222898E+005  0.400758057900239E-002 
      0.72000000 -0.233330174739128E+005  0.455595760282776E-002 
      0.74000000 -0.233330168738426E+005  0.515602776099154E-002 
      0.76000000 -0.233330162196313E+005  0.581023903755576E-002 
      0.78000000 -0.233330155088793E+005  0.652099106707824E-002 
      0.80000000 -0.233330147392397E+005  0.729063064273971E-002 
      0.82000000 -0.233330139084219E+005  0.812144851139880E-002 
      0.84000000 -0.233330130141934E+005  0.901567696060247E-002 
      0.86000000 -0.233330120543817E+005  0.997548869871141E-002 
      0.88000000 -0.233330110268737E+005  0.110029967156891E-001 
      0.90000000 -0.233330099296153E+005  0.121002550843381E-001 
      0.92000000 -0.233330087606094E+005  0.132692609927796E-001 
      0.94000000 -0.233330075179128E+005  0.145119575905438E-001 
      0.96000000 -0.233330061996326E+005  0.158302377998558E-001 
      0.98000000 -0.233330048039215E+005  0.172259488941283E-001 
      1.00000000 -0.233330033289728E+005  0.187008975714276E-001 
      1.02000000 -0.233330017730149E+005  0.202568554857869E-001 
      1.04000000 -0.233330001343054E+005  0.218955649888849E-001 
      1.06000000 -0.233329984111253E+005  0.236187450542441E-001 
      1.08000000 -0.233329966017735E+005  0.254280969291943E-001 
      1.10000000 -0.233329947045609E+005  0.273253094991349E-001 
      1.12000000 -0.233329927178063E+005  0.293120641011386E-001 
      1.14000000 -0.233329906398315E+005  0.313900389292049E-001 
      1.16000000 -0.233329884689579E+005  0.335609125176265E-001 
      1.18000000 -0.233329862035034E+005  0.358263669459346E-001 
      1.20000000 -0.233329838417800E+005  0.381880904065673E-001 
      1.22000000 -0.233329813820914E+005  0.406477790300794E-001 
      1.24000000 -0.233329788227321E+005  0.432071383050941E-001 
      1.26000000 -0.233329761619867E+005  0.458678836691761E-001 
      1.28000000 -0.233329733981300E+005  0.486317403727141E-001 
      1.30000000 -0.233329705294274E+005  0.515004429653872E-001 
      1.32000000 -0.233329675541364E+005  0.544757339813949E-001 
      1.34000000 -0.233329644705082E+005  0.575593621853997E-001 
      1.36000000 -0.233329612767902E+005  0.607530802152214E-001 
      1.38000000 -0.233329579712287E+005  0.640586416336591E-001 
      1.40000000 -0.233329545520730E+005  0.674777973461299E-001 
      1.42000000 -0.233329510175789E+005  0.710122914707444E-001 
      1.44000000 -0.233329473660138E+005  0.746638566206032E-001 
      1.46000000 -0.233329435956615E+005  0.784342088365181E-001 
      1.48000000 -0.233329397048287E+005  0.823250417030307E-001 
      1.50000000 -0.233329356918499E+005  0.863380204737107E-001 
      1.52000000 -0.233329315550947E+005  0.904747756952950E-001 
      1.54000000 -0.233329272929739E+005  0.947368964698787E-001 
      1.56000000 -0.233329229039465E+005  0.991259238686908E-001 
      1.58000000 -0.233329183865266E+005  0.103643343792121E+000 
      1.60000000 -0.233329137392903E+005  0.108290580120539E+000 
      1.62000000 -0.233329089608825E+005  0.113068987865121E+000 
      1.64000000 -0.233329040500243E+005  0.117979846089744E+000 
      1.66000000 -0.233328990055192E+005  0.123024351185551E+000 
      1.68000000 -0.233328938262601E+005  0.128203610244510E+000 
      1.70000000 -0.233328885112358E+005  0.133518634584562E+000 
      1.72000000 -0.233328830595368E+005  0.138970333590308E+000 
      1.74000000 -0.233328774703613E+005  0.144559509057950E+000 
      1.76000000 -0.233328717430207E+005  0.150286849704196E+000 
      1.78000000 -0.233328658769443E+005  0.156152926068047E+000 
      1.80000000 -0.233328598716842E+005  0.162158186201440E+000 
      1.82000000 -0.233328537269188E+005  0.168302951554797E+000 
      1.84000000 -0.233328474424565E+005  0.174587413849417E+000 
      1.86000000 -0.233328410182382E+005  0.181011632191168E+000 
      1.88000000 -0.233328344543393E+005  0.187575531109163E+000 
      1.90000000 -0.233328277509711E+005  0.194278899234801E+000 
      1.92000000 -0.233328209084821E+005  0.201121388321101E+000 
      1.94000000 -0.233328139273571E+005  0.208102513298391E+000 
      1.96000000 -0.233328068082178E+005  0.215221652602223E+000 
      1.98000000 -0.233327995518210E+005  0.222478049376778E+000 
      2.00000000 -0.233327921590572E+005  0.229870813210359E+000 
      2.02000000 -0.233327846309479E+005  0.237398922492698E+000 
      2.04000000 -0.233327769686430E+005  0.245061227335289E+000 
      2.06000000 -0.233327691734173E+005  0.252856453094979E+000 
      2.08000000 -0.233327612466659E+005  0.260783204432729E+000 
      2.10000000 -0.233327531899004E+005  0.268839969988019E+000 
      2.12000000 -0.233327450047431E+005  0.277025127322374E+000 
      2.14000000 -0.233327366929217E+005  0.285336948654861E+000 
      2.16000000 -0.233327282562638E+005  0.293773606600668E+000 
      2.18000000 -0.233327196966902E+005  0.302333180212864E+000 
      2.20000000 -0.233327110162090E+005  0.311013661398470E+000 
      2.22000000 -0.233327022169090E+005  0.319812961387131E+000 
      2.24000000 -0.233326933009536E+005  0.328728916816181E+000 
      2.26000000 -0.233326842705743E+005  0.337759296035350E+000 
      2.28000000 -0.233326751280656E+005  0.346901804730885E+000 
      2.30000000 -0.233326658757789E+005  0.356154091487804E+000 
      2.32000000 -0.233326565161174E+005  0.365513752943788E+000 
      2.34000000 -0.233326470515321E+005  0.374978338293433E+000 
      2.36000000 -0.233326374845167E+005  0.384545353690410E+000 
      2.38000000 -0.233326278176045E+005  0.394212265863850E+000 
      2.40000000 -0.233326180533648E+005  0.403976505589343E+000 
      2.42000000 -0.233326081943998E+005  0.413835470590706E+000 
      2.44000000 -0.233325982433427E+005  0.423786527634342E+000 
      2.46000000 -0.233325882028558E+005  0.433827014536963E+000 
      2.48000000 -0.233325780756291E+005  0.443954241239069E+000 
      2.50000000 -0.233325678643799E+005  0.454165490491713E+000 
      2.52000000 -0.233325575718525E+005  0.464458017881257E+000 
      2.54000000 -0.233325472008194E+005  0.474829050991012E+000 
      2.56000000 -0.233325367540822E+005  0.485275788185456E+000 
      2.58000000 -0.233325262344738E+005  0.495795396580857E+000 
      2.60000000 -0.233325156448610E+005  0.506385009431195E+000 
      2.62000000 -0.233325049881473E+005  0.517041723071708E+000 
      2.64000000 -0.233324942672769E+005  0.527762593460281E+000 
      2.66000000 -0.233324834852382E+005  0.538544632211471E+000 
      2.68000000 -0.233324726450676E+005  0.549384802794509E+000 
      2.70000000 -0.233324617498541E+005  0.560280016329129E+000 
      2.72000000 -0.233324508027429E+005  0.571227127526791E+000 
      2.74000000 -0.233324398069396E+005  0.582222930758753E+000 
      2.76000000 -0.233324287657141E+005  0.593264156247870E+000 
      2.78000000 -0.233324176824036E+005  0.604347466777038E+000 
      2.80000000 -0.233324065604161E+005  0.615469454283158E+000 
      2.82000000 -0.233323954032333E+005  0.626626637035800E+000 
      2.84000000 -0.233323842144132E+005  0.637815457156153E+000 
      2.86000000 -0.233323729975916E+005  0.649032278807282E+000 
      2.88000000 -0.233323617564841E+005  0.660273386291580E+000 
      2.90000000 -0.233323504948872E+005  0.671534983175285E+000 
      2.92000000 -0.233323392166788E+005  0.682813191580051E+000 
      2.94000000 -0.233323279258181E+005  0.694104052238635E+000 
      2.96000000 -0.233323166263452E+005  0.705403525141448E+000 
      2.98000000 -0.233323053223796E+005  0.716707490808023E+000 
      3.00000000 -0.233322940181182E+005  0.728011752220494E+000 
      3.02000000 -0.233322827178330E+005  0.739312037381985E+000 
      3.04000000 -0.233322714258677E+005  0.750604002648396E+000 
      3.06000000 -0.233322601466337E+005  0.761883236672706E+000 
      3.08000000 -0.233322488846059E+005  0.773145264525621E+000 
      3.10000000 -0.233322376443175E+005  0.784385552914437E+000 
      3.12000000 -0.233322264303551E+005  0.795599515324562E+000 
      3.14000000 -0.233322152473527E+005  0.806782517720979E+000 
      3.16000000 -0.233322040999854E+005  0.817929884964321E+000 
      3.18000000 -0.233321929929633E+005  0.829036907109396E+000 
      3.20000000 -0.233321819310243E+005  0.840098846062560E+000 
      3.22000000 -0.233321709189276E+005  0.851110942765002E+000 
      3.24000000 -0.233321599614462E+005  0.862068424137823E+000 
      3.26000000 -0.233321490633598E+005  0.872966510546838E+000 
      3.28000000 -0.233321382294470E+005  0.883800423332335E+000 
      3.30000000 -0.233321274644781E+005  0.894565392280068E+000 
      3.32000000 -0.233321167732072E+005  0.905256663231451E+000 
      3.34000000 -0.233321061603646E+005  0.915869505768003E+000 
      3.36000000 -0.233320956306499E+005  0.926399220478158E+000 
      3.38000000 -0.233320851887239E+005  0.936841146477750E+000 
      3.40000000 -0.233320748392020E+005  0.947190668364372E+000 
      3.42000000 -0.233320645866471E+005  0.957443223298572E+000 
      3.44000000 -0.233320544355631E+005  0.967594307252877E+000 
      3.46000000 -0.233320443903889E+005  0.977639481440245E+000 
      3.48000000 -0.233320344554922E+005  0.987574378139270E+000 
      3.50000000 -0.233320246351642E+005  0.997394706210026E+000 
      3.52000000 -0.233320149336142E+005  0.100709625620157E+001 
      3.54000000 -0.233320053549653E+005  0.101667490505106E+001 
      3.56000000 -0.233319959032499E+005  0.102612662047667E+001 
      3.58000000 -0.233319865824055E+005  0.103544746489713E+001 
      3.60000000 -0.233319773962716E+005  0.104463359875421E+001 
      3.62000000 -0.233319683485867E+005  0.105368128364657E+001 
      3.64000000 -0.233319594429855E+005  0.106258688487878E+001 
      3.66000000 -0.233319506829967E+005  0.107134687370425E+001 
      3.68000000 -0.233319420720413E+005  0.107995782909780E+001 
      3.70000000 -0.233319336134315E+005  0.108841643891265E+001 
      3.72000000 -0.233319253103696E+005  0.109671950073430E+001 
      3.74000000 -0.233319171659479E+005  0.110486392251466E+001 
      3.76000000 -0.233319091831478E+005  0.111284672256896E+001 
      3.78000000 -0.233319013648405E+005  0.112066502985730E+001 
      3.80000000 -0.233318937137868E+005  0.112831608360104E+001 
      3.82000000 -0.233318862326375E+005  0.113579723291152E+001 
      3.84000000 -0.233318789239337E+005  0.114310593669114E+001 
      3.86000000 -0.233318717901074E+005  0.115023976300530E+001 
      3.88000000 -0.233318648334814E+005  0.115719638902057E+001 
      3.90000000 -0.233318580562696E+005  0.116397360081598E+001 
      3.92000000 -0.233318514605770E+005  0.117056929333966E+001 
      3.94000000 -0.233318450483996E+005  0.117698147074612E+001 
      3.96000000 -0.233318388216240E+005  0.118320824640546E+001 
      3.98000000 -0.233318327820264E+005  0.118924784400472E+001 
      4.00000000 -0.233318269312722E+005  0.119509859818515E+001 
      4.02000000 -0.233318212709144E+005  0.120075895599000E+001 
      4.04000000 -0.233318158023917E+005  0.120622747870830E+001 
      4.06000000 -0.233318105270268E+005  0.121150284358869E+001 
      4.08000000 -0.233318054460242E+005  0.121658384622147E+001 
      4.10000000 -0.233318005604670E+005  0.122146940334448E+001 
      4.12000000 -0.233317958713143E+005  0.122615855608829E+001 
      4.14000000 -0.233317913793973E+005  0.123065047307592E+001 
      4.16000000 -0.233317870854161E+005  0.123494445428981E+001 
      4.18000000 -0.233317829899355E+005  0.123903993487079E+001 
      4.20000000 -0.233317790933813E+005  0.124293648912108E+001 
      4.22000000 -0.233317753960356E+005  0.124663383478279E+001 
      4.24000000 -0.233317718980332E+005  0.125013183714615E+001 
      4.26000000 -0.233317685993569E+005  0.125343051343926E+001 
      4.28000000 -0.233317654998334E+005  0.125653003701069E+001 
      4.30000000 -0.233317625991290E+005  0.125943074140055E+001 
      4.32000000 -0.233317598967463E+005  0.126213312409923E+001 
      4.34000000 -0.233317573920201E+005  0.126463785027821E+001 
      4.36000000 -0.233317550841142E+005  0.126694575618378E+001 
      4.38000000 -0.233317529720183E+005  0.126905785203874E+001 
      4.40000000 -0.233317510545458E+005  0.127097532457919E+001 
      4.42000000 -0.233317493303311E+005  0.127269953926949E+001 
      4.44000000 -0.233317477978286E+005  0.127423204175009E+001 
      4.46000000 -0.233317464553113E+005  0.127557455904090E+001 
      4.48000000 -0.233317453008703E+005  0.127672900010125E+001 
      4.50000000 -0.233317443324147E+005  0.127769745566591E+001 
      4.52000000 -0.233317435476728E+005  0.127848219762330E+001 
      4.54000000 -0.233317429441925E+005  0.127908567788632E+001 
      4.56000000 -0.233317425193439E+005  0.127951052649600E+001 
      4.58000000 -0.233317422703214E+005  0.127975954902599E+001 
      4.60000000 -0.233317421941466E+005  0.127983572383235E+001 
      4.62000000 -0.233317422876720E+005  0.127974219841861E+001 
      4.64000000 -0.233317425475852E+005  0.127948228521925E+001 
      4.66000000 -0.233317429704132E+005  0.127905945717584E+001 
      4.68000000 -0.233317435525275E+005  0.127847734286161E+001 
      4.70000000 -0.233317442901494E+005  0.127773972103052E+001 
      4.72000000 -0.233317451793554E+005  0.127685051499319E+001 
      4.74000000 -0.233317462160838E+005  0.127581378654106E+001 
      4.76000000 -0.233317473961405E+005  0.127463372991708E+001 
      4.78000000 -0.233317487152050E+005  0.127331466542430E+001 
      4.80000000 -0.233317501688374E+005  0.127186103293871E+001 
      4.82000000 -0.233317517524849E+005  0.127027738547765E+001 
      4.84000000 -0.233317534614880E+005  0.126856838241563E+001 
      4.86000000 -0.233317552910871E+005  0.126673878331880E+001 
      4.88000000 -0.233317572364290E+005  0.126479344140825E+001 
      4.90000000 -0.233317592925730E+005  0.126273729735737E+001 
      4.92000000 -0.233317614544972E+005  0.126057537314494E+001 
      4.94000000 -0.233317637171043E+005  0.125831276608140E+001 
      4.96000000 -0.233317660752271E+005  0.125595464327446E+001 
      4.98000000 -0.233317685236343E+005  0.125350623605448E+001 
      5.00000000 -0.233317710570353E+005  0.125097283503711E+001 
      5.02000000 -0.233317736700854E+005  0.124835978495394E+001 
      5.04000000 -0.233317763573903E+005  0.124567248009566E+001 
      5.06000000 -0.233317791135105E+005  0.124291635990986E+001 
      5.08000000 -0.233317819329658E+005  0.124009690460203E+001 
      5.10000000 -0.233317848102392E+005  0.123721963119739E+001 
      5.12000000 -0.233317877397809E+005  0.123429008944503E+001 
      5.14000000 -0.233317907160123E+005  0.123131385809009E+001 
      5.16000000 -0.233317937333294E+005  0.122829654097285E+001 
      5.18000000 -0.233317967861072E+005  0.122524376316477E+001 
      5.20000000 -0.233317998687033E+005  0.122216116710466E+001 
      5.22000000 -0.233318029754617E+005  0.121905440872551E+001 
      5.24000000 -0.233318061007171E+005  0.121592915324104E+001 
      5.26000000 -0.233318092387994E+005  0.121279107096008E+001 
      5.28000000 -0.233318123840375E+005  0.120964583285350E+001 
      5.30000000 -0.233318155307645E+005  0.120649910590144E+001 
      5.32000000 -0.233318186733221E+005  0.120335654823334E+001 
      5.34000000 -0.233318218060664E+005  0.120022380399565E+001 
      5.36000000 -0.233318249233724E+005  0.119710649796596E+001 
      5.38000000 -0.233318280196404E+005  0.119401022995360E+001 
      5.40000000 -0.233318310893015E+005  0.119094056889709E+001 
      5.42000000 -0.233318341268236E+005  0.118790304678528E+001 
      5.44000000 -0.233318371267180E+005  0.118490315241762E+001 
      5.46000000 -0.233318400835455E+005  0.118194632485192E+001 
      5.48000000 -0.233318429919233E+005  0.117903794707184E+001 
      5.50000000 -0.233318458465313E+005  0.117618333910366E+001 
      5.52000000 -0.233318486421188E+005  0.117338775154763E+001 
      5.54000000 -0.233318513735116E+005  0.117065635875971E+001 
      5.56000000 -0.233318540356178E+005  0.116799425256543E+001 
      5.58000000 -0.233318566234349E+005  0.116540643550973E+001 
      5.60000000 -0.233318591320556E+005  0.116289781482442E+001 
      5.62000000 -0.233318615566742E+005  0.116047319618853E+001 
      5.64000000 -0.233318638925922E+005  0.115813727813812E+001 
      5.66000000 -0.233318661352240E+005  0.115589464635873E+001 
      5.68000000 -0.233318682801017E+005  0.115374976865203E+001 
      5.70000000 -0.233318703228802E+005  0.115170699021201E+001 
      5.72000000 -0.233318722593413E+005  0.114977052905574E+001 
      5.74000000 -0.233318740853983E+005  0.114794447210070E+001 
      5.76000000 -0.233318757970987E+005  0.114623277163812E+001 
      5.78000000 -0.233318773906282E+005  0.114463924218372E+001 
      5.80000000 -0.233318788623126E+005  0.114316755773678E+001 
      5.82000000 -0.233318802086208E+005  0.114182124954043E+001 
      5.84000000 -0.233318814261662E+005  0.114060370417596E+001 
      5.86000000 -0.233318825117082E+005  0.113951816215839E+001 
      5.88000000 -0.233318834621537E+005  0.113856771667734E+001 
      5.90000000 -0.233318842745572E+005  0.113775531316702E+001 
      5.92000000 -0.233318849461218E+005  0.113708374861951E+001 
      5.94000000 -0.233318854741986E+005  0.113655567178268E+001 
      5.96000000 -0.233318858562872E+005  0.113617358315716E+001 
      5.98000000 -0.233318860900347E+005  0.113593983569233E+001 
      6.00000000 -0.233318861732350E+005  0.113585663533394E+001 
