# Real time calculation: 
# Eall: Total energy
# Eall0: Initial total energy
# 1:Time[fs] 2:Eall[eV] 3:Eall-Eall0[eV] 
      0.00000000 -0.233523234061446E+005  0.000000000000000E+000 
      0.02000000 -0.233523234061721E+005 -0.274895191471728E-007 
      0.04000000 -0.233523234061697E+005 -0.250641553151468E-007 
      0.06000000 -0.233523234061550E+005 -0.103511063545398E-007 
      0.08000000 -0.233523234061019E+005  0.427006338947137E-007 
      0.10000000 -0.233523234059584E+005  0.186288978618552E-006 
      0.12000000 -0.233523234056345E+005  0.510105985957193E-006 
      0.14000000 -0.233523234049912E+005  0.115348942677580E-005 
      0.16000000 -0.233523234038268E+005  0.231780637065885E-005 
      0.18000000 -0.233523234018659E+005  0.427874705819140E-005 
      0.20000000 -0.233523233987465E+005  0.739810833314801E-005 
      0.22000000 -0.233523233940096E+005  0.121350233245212E-004 
      0.24000000 -0.233523233870886E+005  0.190560031952445E-004 
      0.26000000 -0.233523233773013E+005  0.288433052661276E-004 
      0.28000000 -0.233523233638428E+005  0.423018100360086E-004 
      0.30000000 -0.233523233457810E+005  0.603636491719225E-004 
      0.32000000 -0.233523233220539E+005  0.840907638967149E-004 
      0.34000000 -0.233523232914694E+005  0.114675248376013E-003 
      0.36000000 -0.233523232527071E+005  0.153437567818270E-003 
      0.38000000 -0.233523232043221E+005  0.201822536825547E-003 
      0.40000000 -0.233523231447516E+005  0.261393073462939E-003 
      0.42000000 -0.233523230723223E+005  0.333822316826115E-003 
      0.44000000 -0.233523229852604E+005  0.420884253505080E-003 
      0.46000000 -0.233523228817018E+005  0.524442806540510E-003 
      0.48000000 -0.233523227597050E+005  0.646439621984452E-003 
      0.50000000 -0.233523226172638E+005  0.788880819112963E-003 
      0.52000000 -0.233523224523217E+005  0.953822927028174E-003 
      0.54000000 -0.233523222627864E+005  0.114335821801298E-002 
      0.56000000 -0.233523220465453E+005  0.135959938814110E-002 
      0.58000000 -0.233523218014809E+005  0.160466373672784E-002 
      0.60000000 -0.233523215254878E+005  0.188065684462140E-002 
      0.62000000 -0.233523212164881E+005  0.218965655566473E-002 
      0.64000000 -0.233523208724469E+005  0.253369773155143E-002 
      0.66000000 -0.233523204913867E+005  0.291475796569036E-002 
      0.68000000 -0.233523200714001E+005  0.333474457781076E-002 
      0.70000000 -0.233523196106617E+005  0.379548295736670E-002 
      0.72000000 -0.233523191074377E+005  0.429870696107621E-002 
      0.74000000 -0.233523185600939E+005  0.484605075825411E-002 
      0.76000000 -0.233523179671018E+005  0.543904287567758E-002 
      0.78000000 -0.233523173270422E+005  0.607910242651665E-002 
      0.80000000 -0.233523166386080E+005  0.676753666640890E-002 
      0.82000000 -0.233523159006050E+005  0.750553961991157E-002 
      0.84000000 -0.233523151119521E+005  0.829419250432155E-002 
      0.86000000 -0.233523142716784E+005  0.913446622000425E-002 
      0.88000000 -0.233523133789189E+005  0.100272257216170E-001 
      0.90000000 -0.233523124329089E+005  0.109732357597867E-001 
      0.92000000 -0.233523114329762E+005  0.119731684603717E-001 
      0.94000000 -0.233523103785321E+005  0.130276125835357E-001 
      0.96000000 -0.233523092690605E+005  0.141370841347149E-001 
      0.98000000 -0.233523081041067E+005  0.153020379809964E-001 
      1.00000000 -0.233523068832639E+005  0.165228807853613E-001 
      1.02000000 -0.233523056061603E+005  0.177999843090627E-001 
      1.04000000 -0.233523042724458E+005  0.191336988439342E-001 
      1.06000000 -0.233523028817781E+005  0.205243665302354E-001 
      1.08000000 -0.233523014338102E+005  0.219723344672292E-001 
      1.10000000 -0.233522999281781E+005  0.234779665213618E-001 
      1.12000000 -0.233522983644896E+005  0.250416550230753E-001 
      1.14000000 -0.233522967423134E+005  0.266638312447504E-001 
      1.16000000 -0.233522950611700E+005  0.283449746071895E-001 
      1.18000000 -0.233522933205240E+005  0.300856206486695E-001 
      1.20000000 -0.233522915197759E+005  0.318863687217595E-001 
      1.22000000 -0.233522896582561E+005  0.337478885486091E-001 
      1.24000000 -0.233522877352198E+005  0.356709248025348E-001 
      1.26000000 -0.233522857498445E+005  0.376563001149764E-001 
      1.28000000 -0.233522837012279E+005  0.397049167119987E-001 
      1.30000000 -0.233522815883885E+005  0.418177561451504E-001 
      1.32000000 -0.233522794102665E+005  0.439958781220921E-001 
      1.34000000 -0.233522771657273E+005  0.462404173944590E-001 
      1.36000000 -0.233522748535646E+005  0.485525800950660E-001 
      1.38000000 -0.233522724725065E+005  0.509336381570962E-001 
      1.40000000 -0.233522700212223E+005  0.533849223906774E-001 
      1.42000000 -0.233522674983306E+005  0.559078140807284E-001 
      1.44000000 -0.233522649024086E+005  0.585037360558043E-001 
      1.46000000 -0.233522622320028E+005  0.611741418884218E-001 
      1.48000000 -0.233522594856407E+005  0.639205039538543E-001 
      1.50000000 -0.233522566618442E+005  0.667443004123630E-001 
      1.52000000 -0.233522537591431E+005  0.696470015448703E-001 
      1.54000000 -0.233522507760892E+005  0.726300554266075E-001 
      1.56000000 -0.233522477112708E+005  0.756948738884662E-001 
      1.58000000 -0.233522445633257E+005  0.788428189516653E-001 
      1.60000000 -0.233522413309556E+005  0.820751890891794E-001 
      1.62000000 -0.233522380129401E+005  0.853932045312506E-001 
      1.64000000 -0.233522346081524E+005  0.887979922058594E-001 
      1.66000000 -0.233522311155737E+005  0.922905709699915E-001 
      1.68000000 -0.233522275343067E+005  0.958718379607784E-001 
      1.70000000 -0.233522238635889E+005  0.995425557014721E-001 
      1.72000000 -0.233522201028051E+005  0.103303339547712E+000 
      1.74000000 -0.233522162514990E+005  0.107154645604016E+000 
      1.76000000 -0.233522123093850E+005  0.111096759664245E+000 
      1.78000000 -0.233522082763569E+005  0.115129787701949E+000 
      1.80000000 -0.233522041524974E+005  0.119253647245477E+000 
      1.82000000 -0.233521999380849E+005  0.123468059702813E+000 
      1.84000000 -0.233521956335998E+005  0.127772544895231E+000 
      1.86000000 -0.233521912397265E+005  0.132166418158605E+000 
      1.88000000 -0.233521867573563E+005  0.136648788391372E+000 
      1.90000000 -0.233521821875867E+005  0.141218557896753E+000 
      1.92000000 -0.233521775317208E+005  0.145874423802710E+000 
      1.94000000 -0.233521727912639E+005  0.150614880710041E+000 
      1.96000000 -0.233521679679207E+005  0.155438223937546E+000 
      1.98000000 -0.233521630635896E+005  0.160342555037873E+000 
      2.00000000 -0.233521580803551E+005  0.165325789587143E+000 
      2.02000000 -0.233521530204786E+005  0.170385666054231E+000 
      2.04000000 -0.233521478863884E+005  0.175519756219934E+000 
      2.06000000 -0.233521426806676E+005  0.180725477056304E+000 
      2.08000000 -0.233521374060404E+005  0.186000104279603E+000 
      2.10000000 -0.233521320653586E+005  0.191340786088879E+000 
      2.12000000 -0.233521266615874E+005  0.196744557210799E+000 
      2.14000000 -0.233521211977913E+005  0.202208353355933E+000 
      2.16000000 -0.233521156771190E+005  0.207729025637915E+000 
      2.18000000 -0.233521101027889E+005  0.213303355769086E+000 
      2.20000000 -0.233521044780738E+005  0.218928070888007E+000 
      2.22000000 -0.233520988062868E+005  0.224599857864159E+000 
      2.24000000 -0.233520930907678E+005  0.230315376832332E+000 
      2.26000000 -0.233520873348713E+005  0.236071273307079E+000 
      2.28000000 -0.233520815419546E+005  0.241864190074414E+000 
      2.30000000 -0.233520757153673E+005  0.247690777394436E+000 
      2.32000000 -0.233520698584423E+005  0.253547702356295E+000 
      2.34000000 -0.233520639744873E+005  0.259431657366973E+000 
      2.36000000 -0.233520580667770E+005  0.265339367600609E+000 
      2.38000000 -0.233520521385479E+005  0.271267596709249E+000 
      2.40000000 -0.233520461929933E+005  0.277213151333270E+000 
      2.42000000 -0.233520402332600E+005  0.283172884652814E+000 
      2.44000000 -0.233520342624467E+005  0.289143697928387E+000 
      2.46000000 -0.233520282836046E+005  0.295122540086316E+000 
      2.48000000 -0.233520222997392E+005  0.301106405451164E+000 
      2.50000000 -0.233520163138145E+005  0.307092330181923E+000 
      2.52000000 -0.233520103287578E+005  0.313077386842794E+000 
      2.54000000 -0.233520043474664E+005  0.319058678253151E+000 
      2.56000000 -0.233519983728146E+005  0.325033330078434E+000 
      2.58000000 -0.233519924076627E+005  0.330998481902078E+000 
      2.60000000 -0.233519864548669E+005  0.336951277780832E+000 
      2.62000000 -0.233519805172884E+005  0.342888856258692E+000 
      2.64000000 -0.233519745978047E+005  0.348808339984857E+000 
      2.66000000 -0.233519686993198E+005  0.354706824886216E+000 
      2.68000000 -0.233519628247755E+005  0.360581369182055E+000 
      2.70000000 -0.233519569771615E+005  0.366428983162882E+000 
      2.72000000 -0.233519511595249E+005  0.372246619708617E+000 
      2.74000000 -0.233519453749787E+005  0.378031165929747E+000 
      2.76000000 -0.233519396267091E+005  0.383779435520004E+000 
      2.78000000 -0.233519339179829E+005  0.389488161761794E+000 
      2.80000000 -0.233519282521533E+005  0.395153991305009E+000 
      2.82000000 -0.233519226326656E+005  0.400773479050257E+000 
      2.84000000 -0.233519170630599E+005  0.406343084776859E+000 
      2.86000000 -0.233519115469733E+005  0.411859171373328E+000 
      2.88000000 -0.233519060881398E+005  0.417318004843552E+000 
      2.90000000 -0.233519006903885E+005  0.422715756150569E+000 
      2.92000000 -0.233518953576402E+005  0.428048504436977E+000 
      2.94000000 -0.233518900939029E+005  0.433312241773577E+000 
      2.96000000 -0.233518849032648E+005  0.438502879810558E+000 
      2.98000000 -0.233518797898865E+005  0.443616258198214E+000 
      3.00000000 -0.233518747579899E+005  0.448648154706034E+000 
      3.02000000 -0.233518698118481E+005  0.453594296529718E+000 
      3.04000000 -0.233518649557716E+005  0.458450373018157E+000 
      3.06000000 -0.233518601940943E+005  0.463212050352447E+000 
      3.08000000 -0.233518555311570E+005  0.467874987620112E+000 
      3.10000000 -0.233518509712898E+005  0.472434854810443E+000 
      3.12000000 -0.233518465187927E+005  0.476887351898762E+000 
      3.14000000 -0.233518421779161E+005  0.481228228527762E+000 
      3.16000000 -0.233518379528410E+005  0.485453303608401E+000 
      3.18000000 -0.233518338476591E+005  0.489558485567363E+000 
      3.20000000 -0.233518298663521E+005  0.493539792551203E+000 
      3.22000000 -0.233518260127728E+005  0.497393371816881E+000 
      3.24000000 -0.233518222906265E+005  0.501115518141641E+000 
      3.26000000 -0.233518187034532E+005  0.504702691481138E+000 
      3.28000000 -0.233518152546102E+005  0.508151534479085E+000 
      3.30000000 -0.233518119472544E+005  0.511458890255313E+000 
      3.32000000 -0.233518087843220E+005  0.514621822650136E+000 
      3.34000000 -0.233518057685034E+005  0.517637641208074E+000 
      3.36000000 -0.233518029022106E+005  0.520503934044008E+000 
      3.38000000 -0.233518001875320E+005  0.523218612622694E+000 
      3.40000000 -0.233517976261717E+005  0.525779972940426E+000 
      3.42000000 -0.233517952193668E+005  0.528186777814163E+000 
      3.44000000 -0.233517929677809E+005  0.530438363715097E+000 
      3.46000000 -0.233517908713683E+005  0.532534776360096E+000 
      3.48000000 -0.233517889292079E+005  0.534476936756329E+000 
      3.50000000 -0.233517871393060E+005  0.536266838599269E+000 
      3.52000000 -0.233517854983696E+005  0.537907775010185E+000 
      3.54000000 -0.233517840015550E+005  0.539404589657200E+000 
      3.56000000 -0.233517826422020E+005  0.540763942632707E+000 
      3.58000000 -0.233517814115660E+005  0.541994578638592E+000 
      3.60000000 -0.233517802985631E+005  0.543107581584476E+000 
      3.62000000 -0.233517792895499E+005  0.544116594729692E+000 
      3.64000000 -0.233517783681610E+005  0.545037983655985E+000 
      3.66000000 -0.233517775152285E+005  0.545890916140557E+000 
      3.68000000 -0.233517767088130E+005  0.546697331625559E+000 
      3.70000000 -0.233517759243702E+005  0.547481774412463E+000 
      3.72000000 -0.233517751350785E+005  0.548271066138943E+000 
      3.74000000 -0.233517743123479E+005  0.549093796758741E+000 
      3.76000000 -0.233517734265257E+005  0.549979618955681E+000 
      3.78000000 -0.233517724478059E+005  0.550958338774540E+000 
      3.80000000 -0.233517713473402E+005  0.552058804433184E+000 
      3.82000000 -0.233517700985368E+005  0.553307607852684E+000 
      3.84000000 -0.233517686785195E+005  0.554727625166794E+000 
      3.86000000 -0.233517670697075E+005  0.556336437160437E+000 
      3.88000000 -0.233517652614611E+005  0.558144683542797E+000 
      3.90000000 -0.233517632517244E+005  0.560154420292320E+000 
      3.92000000 -0.233517610485826E+005  0.562357562022476E+000 
      3.94000000 -0.233517586716414E+005  0.564734503236671E+000 
      3.96000000 -0.233517561531227E+005  0.567253021921487E+000 
      3.98000000 -0.233517535385688E+005  0.569867575878720E+000 
      4.00000000 -0.233517508870411E+005  0.572519103548564E+000 
      4.02000000 -0.233517482707045E+005  0.575135440148214E+000 
      4.04000000 -0.233517457736927E+005  0.577632451916156E+000 
      4.06000000 -0.233517434901650E+005  0.579915979666955E+000 
      4.08000000 -0.233517415214807E+005  0.581884663913207E+000 
      4.10000000 -0.233517399724437E+005  0.583433700934316E+000 
      4.12000000 -0.233517389465956E+005  0.584459549031050E+000 
      4.14000000 -0.233517385405726E+005  0.584865572028540E+000 
      4.16000000 -0.233517388375763E+005  0.584568568337157E+000 
      4.18000000 -0.233517399000504E+005  0.583506094251977E+000 
      4.20000000 -0.233517417616989E+005  0.581644445698324E+000 
      4.22000000 -0.233517444190235E+005  0.578987121155248E+000 
      4.24000000 -0.233517478225996E+005  0.575583545055055E+000 
      4.26000000 -0.233517518683527E+005  0.571537791943841E+000 
      4.28000000 -0.233517563891286E+005  0.567017016019110E+000 
      4.30000000 -0.233517611468821E+005  0.562259262570833E+000 
      4.32000000 -0.233517658258284E+005  0.557580316228251E+000 
      4.34000000 -0.233517700269152E+005  0.553379229428236E+000 
      4.36000000 -0.233517732639706E+005  0.550142174091046E+000 
      4.38000000 -0.233517749618743E+005  0.548444270304437E+000 
      4.40000000 -0.233517744570745E+005  0.548949070135705E+000 
      4.42000000 -0.233517710007337E+005  0.552405410994354E+000 
      4.44000000 -0.233517637647411E+005  0.559641403560406E+000 
      4.46000000 -0.233517518507633E+005  0.571555381341283E+000 
      4.48000000 -0.233517343024297E+005  0.589103714954038E+000 
      4.50000000 -0.233517101206665E+005  0.613285478118296E+000 
      4.52000000 -0.233516782820962E+005  0.645124048406931E+000 
      4.54000000 -0.233516377603190E+005  0.685645825690041E+000 
      4.56000000 -0.233515875497880E+005  0.735856356633745E+000 
      4.58000000 -0.233515266918835E+005  0.796714261120190E+000 
      4.60000000 -0.233514543026842E+005  0.869103460411729E+000 
      4.62000000 -0.233513696018380E+005  0.953804306693332E+000 
      4.64000000 -0.233512719418405E+005  0.105146430410825E+001 
      4.66000000 -0.233511608369550E+005  0.116256918969415E+001 
      4.68000000 -0.233510359909394E+005  0.128741520526573E+001 
      4.70000000 -0.233508973227118E+005  0.142608343282406E+001 
      4.72000000 -0.233507449890561E+005  0.157841708852002E+001 
      4.74000000 -0.233505794034811E+005  0.174400266353873E+001 
      4.76000000 -0.233504012503752E+005  0.192215576949055E+001 
      4.78000000 -0.233502114936589E+005  0.211191248572455E+001 
      4.80000000 -0.233500113792287E+005  0.231202691591369E+001 
      4.82000000 -0.233498024306016E+005  0.252097554303372E+001 
      4.84000000 -0.233495864373170E+005  0.273696882766655E+001 
      4.86000000 -0.233493654358236E+005  0.295797032108608E+001 
      4.88000000 -0.233491416827702E+005  0.318172337443510E+001 
      4.90000000 -0.233489176208296E+005  0.340578531509624E+001 
      4.92000000 -0.233486958374027E+005  0.362756874197918E+001 
      4.94000000 -0.233484790167772E+005  0.384438936746176E+001 
      4.96000000 -0.233482698865332E+005  0.405351961144347E+001 
      4.98000000 -0.233480711591983E+005  0.425224694638349E+001 
      5.00000000 -0.233478854703469E+005  0.443793579774574E+001 
      5.02000000 -0.233477153145019E+005  0.460809164273932E+001 
      5.04000000 -0.233475629803233E+005  0.476042582137652E+001 
      5.06000000 -0.233474304866605E+005  0.489291948416006E+001 
      5.08000000 -0.233473195210883E+005  0.500388505636485E+001 
      5.10000000 -0.233472313825417E+005  0.509202360298777E+001 
      5.12000000 -0.233471669296135E+005  0.515647653110391E+001 
      5.14000000 -0.233471265359795E+005  0.519687016512113E+001 
      5.16000000 -0.233471100542698E+005  0.521335187489450E+001 
      5.18000000 -0.233471167895269E+005  0.520661661772015E+001 
      5.20000000 -0.233471454831764E+005  0.517792296829494E+001 
      5.22000000 -0.233471943081985E+005  0.512909794615255E+001 
      5.24000000 -0.233472608759465E+005  0.506253019815139E+001 
      5.26000000 -0.233473422547979E+005  0.498115134678634E+001 
      5.28000000 -0.233474350005823E+005  0.488840556237230E+001 
      5.30000000 -0.233475351984912E+005  0.478820765345934E+001 
      5.32000000 -0.233476385159585E+005  0.468489018616731E+001 
      5.34000000 -0.233477402658046E+005  0.458314034000545E+001 
      5.36000000 -0.233478354787648E+005  0.448792737983261E+001 
      5.38000000 -0.233479189843707E+005  0.440442177391469E+001 
      5.40000000 -0.233479854990257E+005  0.433790711889733E+001 
      5.42000000 -0.233480297199966E+005  0.429368614802944E+001 
      5.44000000 -0.233480464239407E+005  0.427698220396861E+001 
      5.46000000 -0.233480305684863E+005  0.429283765838759E+001 
      5.48000000 -0.233479773952851E+005  0.434601085950875E+001 
      5.50000000 -0.233478825328531E+005  0.444087329157315E+001 
      5.52000000 -0.233477420974101E+005  0.458130873457588E+001 
      5.54000000 -0.233475527898264E+005  0.477061631828505E+001 
      5.56000000 -0.233473119866775E+005  0.501141946710747E+001 
      5.58000000 -0.233470178233241E+005  0.530558282051277E+001 
      5.60000000 -0.233466692668640E+005  0.565413928060135E+001 
      5.62000000 -0.233462661767760E+005  0.605722936869376E+001 
      5.64000000 -0.233458093510923E+005  0.651405505238640E+001 
      5.66000000 -0.233453005560239E+005  0.702285012073764E+001 
      5.68000000 -0.233447425371225E+005  0.758086902215264E+001 
      5.70000000 -0.233441390103175E+005  0.818439582710811E+001 
      5.72000000 -0.233434946315155E+005  0.882877462918770E+001 
      5.74000000 -0.233428149438985E+005  0.950846224610664E+001 
      5.76000000 -0.233421063026103E+005  0.102171035343151E+002 
      5.78000000 -0.233413757771525E+005  0.109476289921694E+002 
      5.80000000 -0.233406310325305E+005  0.116923736141008E+002 
      5.82000000 -0.233398801909514E+005  0.124432151932758E+002 
      5.84000000 -0.233391316766612E+005  0.131917294834581E+002 
      5.86000000 -0.233383940472877E+005  0.139293588569632E+002 
      5.88000000 -0.233376758157723E+005  0.146475903723833E+002 
      5.90000000 -0.233369852676097E+005  0.153381385349492E+002 
      5.92000000 -0.233363302786032E+005  0.159931275414934E+002 
      5.94000000 -0.233357181386635E+005  0.166052674811184E+002 
      5.96000000 -0.233351553872876E+005  0.171680188570023E+002 
      5.98000000 -0.233346476662221E+005  0.176757399225365E+002 
      6.00000000 -0.233341995944350E+005  0.181238117096175E+002 
