# Real time calculation: 
# Eall: Total energy
# Eall0: Initial total energy
# 1:Time[fs] 2:Eall[eV] 3:Eall-Eall0[eV] 
      0.00000000 -0.691389473833044E+004  0.000000000000000E+000 
      0.02000000 -0.691389473833939E+004 -0.895048967730787E-008 
      0.04000000 -0.691389473833183E+004 -0.138128182525463E-008 
      0.06000000 -0.691389473828198E+004  0.484655133602502E-007 
      0.08000000 -0.691389473810088E+004  0.229561924131792E-006 
      0.10000000 -0.691389473761022E+004  0.720223236152506E-006 
      0.12000000 -0.691389473650378E+004  0.182666014055055E-005 
      0.14000000 -0.691389473430642E+004  0.402402662466681E-005 
      0.16000000 -0.691389473033195E+004  0.799849338335145E-005 
      0.18000000 -0.691389472364179E+004  0.146886576581407E-004 
      0.20000000 -0.691389471300473E+004  0.253257110055423E-004 
      0.22000000 -0.691389469685910E+004  0.414713487546108E-004 
      0.24000000 -0.691389467327885E+004  0.650515959437840E-004 
      0.26000000 -0.691389463994474E+004  0.983856997768902E-004 
      0.28000000 -0.691389459412120E+004  0.144209241731807E-003 
      0.30000000 -0.691389453263994E+004  0.205690501805782E-003 
      0.32000000 -0.691389445189072E+004  0.286439728416864E-003 
      0.34000000 -0.691389434781914E+004  0.390511307774294E-003 
      0.36000000 -0.691389421593151E+004  0.522398937899453E-003 
      0.38000000 -0.691389405130686E+004  0.687023583786474E-003 
      0.40000000 -0.691389384861596E+004  0.889714488257417E-003 
      0.42000000 -0.691389360214514E+004  0.113618530502099E-002 
      0.44000000 -0.691389330582503E+004  0.143250541039258E-002 
      0.46000000 -0.691389295326480E+004  0.178506564425673E-002 
      0.48000000 -0.691389253779027E+004  0.220054017168491E-002 
      0.50000000 -0.691389205248488E+004  0.268584556884195E-002 
      0.52000000 -0.691389149023292E+004  0.324809752683873E-002 
      0.54000000 -0.691389084376505E+004  0.389456538930798E-002 
      0.56000000 -0.691389010570589E+004  0.463262455386572E-002 
      0.58000000 -0.691388926862379E+004  0.546970665393163E-002 
      0.60000000 -0.691388832508128E+004  0.641324916514427E-002 
      0.62000000 -0.691388726768436E+004  0.747064608215370E-002 
      0.64000000 -0.691388608912938E+004  0.864920106408792E-002 
      0.66000000 -0.691388478224759E+004  0.995608284915771E-002 
      0.68000000 -0.691388334004625E+004  0.113982841974850E-001 
      0.70000000 -0.691388175574465E+004  0.129825857975749E-001 
      0.72000000 -0.691388002280542E+004  0.147155250266081E-001 
      0.74000000 -0.691387813496055E+004  0.166033698955684E-001 
      0.76000000 -0.691387608623100E+004  0.186520994467959E-001 
      0.78000000 -0.691387387094171E+004  0.208673887331275E-001 
      0.80000000 -0.691387148373346E+004  0.232545969857407E-001 
      0.82000000 -0.691386891957022E+004  0.258187602189593E-001 
      0.84000000 -0.691386617374011E+004  0.285645903362103E-001 
      0.86000000 -0.691386324185013E+004  0.314964803086701E-001 
      0.88000000 -0.691386011981718E+004  0.346185132634188E-001 
      0.90000000 -0.691385680385331E+004  0.379344771330705E-001 
      0.92000000 -0.691385329044503E+004  0.414478854175376E-001 
      0.94000000 -0.691384957632821E+004  0.451620022296244E-001 
      0.96000000 -0.691384565845867E+004  0.490798717713959E-001 
      0.98000000 -0.691384153397853E+004  0.532043519118549E-001 
      1.00000000 -0.691383720018039E+004  0.575381500523193E-001 
      1.02000000 -0.691383265446984E+004  0.620838606050989E-001 
      1.04000000 -0.691382789432714E+004  0.668440033066648E-001 
      1.06000000 -0.691382291726933E+004  0.718210611100924E-001 
      1.08000000 -0.691381772081309E+004  0.770175173567009E-001 
      1.10000000 -0.691381230243816E+004  0.824358922856674E-001 
      1.12000000 -0.691380665955271E+004  0.880787777385400E-001 
      1.14000000 -0.691380078946178E+004  0.939488686611249E-001 
      1.16000000 -0.691379468933783E+004  0.100048992614658E+000 
      1.18000000 -0.691378835619117E+004  0.106382139272280E+000 
      1.20000000 -0.691378178684356E+004  0.112951486886907E+000 
      1.22000000 -0.691377497790646E+004  0.119760423986474E+000 
      1.24000000 -0.691376792576379E+004  0.126812566651564E+000 
      1.26000000 -0.691376062655851E+004  0.134111771933020E+000 
      1.28000000 -0.691375307618343E+004  0.141662147011251E+000 
      1.30000000 -0.691374527027606E+004  0.149468054385708E+000 
      1.32000000 -0.691373720421724E+004  0.157534113206664E+000 
      1.34000000 -0.691372887313418E+004  0.165865196267492E+000 
      1.36000000 -0.691372027190875E+004  0.174466421697630E+000 
      1.38000000 -0.691371139519057E+004  0.183343139870574E+000 
      1.40000000 -0.691370223741289E+004  0.192500917549296E+000 
      1.42000000 -0.691369279281259E+004  0.201945517857656E+000 
      1.44000000 -0.691368305545631E+004  0.211682874135818E+000 
      1.46000000 -0.691367301927113E+004  0.221719059316163E+000 
      1.48000000 -0.691366267807831E+004  0.232060252133704E+000 
      1.50000000 -0.691365202562987E+004  0.242712700576250E+000 
      1.52000000 -0.691364105564685E+004  0.253682683593672E+000 
      1.54000000 -0.691362976185798E+004  0.264976472459903E+000 
      1.56000000 -0.691361813803805E+004  0.276600292388618E+000 
      1.58000000 -0.691360617804939E+004  0.288560281051471E+000 
      1.60000000 -0.691359387588594E+004  0.300862444507003E+000 
      1.62000000 -0.691358122571734E+004  0.313512613098622E+000 
      1.64000000 -0.691356822193211E+004  0.326516398337107E+000 
      1.66000000 -0.691355485917823E+004  0.339879152213121E+000 
      1.68000000 -0.691354113240421E+004  0.353605926230523E+000 
      1.70000000 -0.691352703690028E+004  0.367701430164360E+000 
      1.72000000 -0.691351256833632E+004  0.382169994121245E+000 
      1.74000000 -0.691349772279611E+004  0.397015534334454E+000 
      1.76000000 -0.691348249680847E+004  0.412241521970631E+000 
      1.78000000 -0.691346688737508E+004  0.427850955360288E+000 
      1.80000000 -0.691345089199261E+004  0.443846337834663E+000 
      1.82000000 -0.691343450866791E+004  0.460229662535478E+000 
      1.84000000 -0.691341773592743E+004  0.477002403008927E+000 
      1.86000000 -0.691340057282169E+004  0.494165508749372E+000 
      1.88000000 -0.691338301892496E+004  0.511719405482412E+000 
      1.90000000 -0.691336507433066E+004  0.529663999784364E+000 
      1.92000000 -0.691334673964275E+004  0.547998687694001E+000 
      1.94000000 -0.691332801596172E+004  0.566722368728009E+000 
      1.96000000 -0.691330890486335E+004  0.585833467095949E+000 
      1.98000000 -0.691328940837359E+004  0.605329956855683E+000 
      2.00000000 -0.691326952893908E+004  0.625209391358801E+000 
      2.02000000 -0.691324926939292E+004  0.645468937522805E+000 
      2.04000000 -0.691322863291716E+004  0.666105413286590E+000 
      2.06000000 -0.691320762300251E+004  0.687115327938301E+000 
      2.08000000 -0.691318624340574E+004  0.708494924699956E+000 
      2.10000000 -0.691316449810626E+004  0.730240224182917E+000 
      2.12000000 -0.691314239126159E+004  0.752347068854953E+000 
      2.14000000 -0.691311992716257E+004  0.774811167877763E+000 
      2.16000000 -0.691309711018877E+004  0.797628141669169E+000 
      2.18000000 -0.691307394476539E+004  0.820793565053865E+000 
      2.20000000 -0.691305043532369E+004  0.844303006752918E+000 
      2.22000000 -0.691302658626467E+004  0.868152065775056E+000 
      2.24000000 -0.691300240192531E+004  0.892336405138193E+000 
      2.26000000 -0.691297788654887E+004  0.916851781570084E+000 
      2.28000000 -0.691295304425979E+004  0.941694070657553E+000 
      2.30000000 -0.691292787904293E+004  0.966859287515449E+000 
      2.32000000 -0.691290239472698E+004  0.992343603464118E+000 
      2.34000000 -0.691287659497256E+004  0.101814335788321E+001 
      2.36000000 -0.691285048326609E+004  0.104425506435399E+001 
      2.38000000 -0.691282406291875E+004  0.107067541169178E+001 
      2.40000000 -0.691279733706866E+004  0.109740126178824E+001 
      2.42000000 -0.691277030869023E+004  0.112442964021460E+001 
      2.44000000 -0.691274298060884E+004  0.115175772160452E+001 
      2.46000000 -0.691271535551951E+004  0.117938281092943E+001 
      2.48000000 -0.691268743601027E+004  0.120730232017610E+001 
      2.50000000 -0.691265922459020E+004  0.123551374024530E+001 
      2.52000000 -0.691263072372041E+004  0.126401461003622E+001 
      2.54000000 -0.691260193584853E+004  0.129280248191360E+001 
      2.56000000 -0.691257286344569E+004  0.132187488475650E+001 
      2.58000000 -0.691254350904311E+004  0.135122928733120E+001 
      2.60000000 -0.691251387527230E+004  0.138086305814886E+001 
      2.62000000 -0.691248396490527E+004  0.141077342517407E+001 
      2.64000000 -0.691245378089172E+004  0.144095743871973E+001 
      2.66000000 -0.691242332639461E+004  0.147141193583295E+001 
      2.68000000 -0.691239260482402E+004  0.150213350642746E+001 
      2.70000000 -0.691236161986904E+004  0.153311846140189E+001 
      2.72000000 -0.691233037552650E+004  0.156436280394304E+001 
      2.74000000 -0.691229887612636E+004  0.159586220408814E+001 
      2.76000000 -0.691226712635413E+004  0.162761197631656E+001 
      2.78000000 -0.691223513127117E+004  0.165960705927217E+001 
      2.80000000 -0.691220289632988E+004  0.169184200056616E+001 
      2.82000000 -0.691217042738621E+004  0.172431094423876E+001 
      2.84000000 -0.691213773070752E+004  0.175700762292477E+001 
      2.86000000 -0.691210481297401E+004  0.178992535643206E+001 
      2.88000000 -0.691207168127521E+004  0.182305705523267E+001 
      2.90000000 -0.691203834310168E+004  0.185639522876828E+001 
      2.92000000 -0.691200480633283E+004  0.188993199761340E+001 
      2.94000000 -0.691197107922025E+004  0.192365911018993E+001 
      2.96000000 -0.691193717036728E+004  0.195756796316006E+001 
      2.98000000 -0.691190308870557E+004  0.199164962487398E+001 
      3.00000000 -0.691186884346895E+004  0.202589486149750E+001 
      3.02000000 -0.691183444416468E+004  0.206029416575984E+001 
      3.04000000 -0.691179990054426E+004  0.209483778618642E+001 
      3.06000000 -0.691176522257275E+004  0.212951575769662E+001 
      3.08000000 -0.691173042040031E+004  0.216431793013661E+001 
      3.10000000 -0.691169550433478E+004  0.219923399566834E+001 
      3.12000000 -0.691166048481562E+004  0.223425351482209E+001 
      3.14000000 -0.691162537238097E+004  0.226936594947708E+001 
      3.16000000 -0.691159017764973E+004  0.230456068071142E+001 
      3.18000000 -0.691155491132799E+004  0.233982700245021E+001 
      3.20000000 -0.691151958422214E+004  0.237515410830623E+001 
      3.22000000 -0.691148420725775E+004  0.241053107269369E+001 
      3.24000000 -0.691144879150524E+004  0.244594682520025E+001 
      3.26000000 -0.691141334820790E+004  0.248139012254065E+001 
      3.28000000 -0.691137788880795E+004  0.251684952249798E+001 
      3.30000000 -0.691134242496568E+004  0.255231336476438E+001 
      3.32000000 -0.691130696856100E+004  0.258776976944533E+001 
      3.34000000 -0.691127153166529E+004  0.262320666515313E+001 
      3.36000000 -0.691123612646483E+004  0.265861186561163E+001 
      3.38000000 -0.691120076511977E+004  0.269397321067612E+001 
      3.40000000 -0.691116545953699E+004  0.272927879345211E+001 
      3.42000000 -0.691113022103161E+004  0.276451729883309E+001 
      3.44000000 -0.691109505985517E+004  0.279967847527328E+001 
      3.46000000 -0.691105998457705E+004  0.283475375338917E+001 
      3.48000000 -0.691102500130475E+004  0.286973702568926E+001 
      3.50000000 -0.691099011273838E+004  0.290462559206613E+001 
      3.52000000 -0.691095531707054E+004  0.293942125990151E+001 
      3.54000000 -0.691092060675718E+004  0.297413157326563E+001 
      3.56000000 -0.691088596719614E+004  0.300877113429965E+001 
      3.58000000 -0.691085137537460E+004  0.304336295584245E+001 
      3.60000000 -0.691081679856157E+004  0.307793976887191E+001 
      3.62000000 -0.691078219313766E+004  0.311254519278625E+001 
      3.64000000 -0.691074750367177E+004  0.314723465867723E+001 
      3.66000000 -0.691071266236521E+004  0.318207596523504E+001 
      3.68000000 -0.691067758898608E+004  0.321714934436298E+001 
      3.70000000 -0.691064219141913E+004  0.325254691131287E+001 
      3.72000000 -0.691060636694600E+004  0.328837138444253E+001 
      3.74000000 -0.691057000435562E+004  0.332473397481978E+001 
      3.76000000 -0.691053298695560E+004  0.336175137484085E+001 
      3.78000000 -0.691049519652463E+004  0.339954180581548E+001 
      3.80000000 -0.691045651819997E+004  0.343822013047591E+001 
      3.82000000 -0.691041684624657E+004  0.347789208387395E+001 
      3.84000000 -0.691037609059324E+004  0.351864773720638E+001 
      3.86000000 -0.691033418396625E+004  0.356055436419432E+001 
      3.88000000 -0.691029108937792E+004  0.360364895252482E+001 
      3.90000000 -0.691024680766820E+004  0.364793066224706E+001 
      3.92000000 -0.691020138473726E+004  0.369335359318268E+001 
      3.94000000 -0.691015491804717E+004  0.373982028327405E+001 
      3.96000000 -0.691010756193050E+004  0.378717639994766E+001 
      3.98000000 -0.691005953121561E+004  0.383520711483182E+001 
      4.00000000 -0.691001110265993E+004  0.388363567051656E+001 
      4.02000000 -0.690996261369292E+004  0.393212463752248E+001 
      4.04000000 -0.690991445799374E+004  0.398028033670806E+001 
      4.06000000 -0.690986707748405E+004  0.402766084639567E+001 
      4.08000000 -0.690982095038694E+004  0.407378794350729E+001 
      4.10000000 -0.690977657510318E+004  0.411816322726655E+001 
      4.12000000 -0.690973444977684E+004  0.416028855360433E+001 
      4.14000000 -0.690969504756875E+004  0.419969076169435E+001 
      4.16000000 -0.690965878781974E+004  0.423595051070236E+001 
      4.18000000 -0.690962600346476E+004  0.426873486568533E+001 
      4.20000000 -0.690959690524737E+004  0.429783308307534E+001 
      4.22000000 -0.690957154346926E+004  0.432319486118383E+001 
      4.24000000 -0.690954976820273E+004  0.434497012771211E+001 
      4.26000000 -0.690953118906015E+004  0.436354927029605E+001 
      4.28000000 -0.690951513576505E+004  0.437960256538991E+001 
      4.30000000 -0.690950062091000E+004  0.439411742044182E+001 
      4.32000000 -0.690948630638258E+004  0.440843194786501E+001 
      4.34000000 -0.690947047500552E+004  0.442426332492230E+001 
      4.36000000 -0.690945100896657E+004  0.444372936387717E+001 
      4.38000000 -0.690942537659236E+004  0.446936173808362E+001 
      4.40000000 -0.690939062894660E+004  0.450410938384738E+001 
      4.42000000 -0.690934340760988E+004  0.455133072056639E+001 
      4.44000000 -0.690927996481993E+004  0.461477351051575E+001 
      4.46000000 -0.690919619690563E+004  0.469854142481748E+001 
      4.48000000 -0.690908769165688E+004  0.480704667356829E+001 
      4.50000000 -0.690894978992036E+004  0.494494841008388E+001 
      4.52000000 -0.690877766129523E+004  0.511707703521025E+001 
      4.54000000 -0.690856639334544E+004  0.532834498499959E+001 
      4.56000000 -0.690831109324196E+004  0.558364508848002E+001 
      4.58000000 -0.690800700019759E+004  0.588773813285797E+001 
      4.60000000 -0.690764960649732E+004  0.624513183312746E+001 
      4.62000000 -0.690723478435636E+004  0.665995397408075E+001 
      4.64000000 -0.690675891528486E+004  0.713582304558097E+001 
      4.66000000 -0.690621901814129E+004  0.767572018915223E+001 
      4.68000000 -0.690561287164373E+004  0.828186668671019E+001 
      4.70000000 -0.690493912679273E+004  0.895561153770948E+001 
      4.72000000 -0.690419740452678E+004  0.969733380366787E+001 
      4.74000000 -0.690338837396665E+004  0.105063643637930E+002 
      4.76000000 -0.690251380687815E+004  0.113809314522975E+002 
      4.78000000 -0.690157660451520E+004  0.123181338152448E+002 
      4.80000000 -0.690058079377313E+004  0.133139445573152E+002 
      4.82000000 -0.689953149066205E+004  0.143632476683894E+002 
      4.84000000 -0.689843483043724E+004  0.154599078932022E+002 
      4.86000000 -0.689729786523894E+004  0.165968730914993E+002 
      4.88000000 -0.689612843178107E+004  0.177663065493726E+002 
      4.90000000 -0.689493499337762E+004  0.189597449528268E+002 
      4.92000000 -0.689372646224777E+004  0.201682760826720E+002 
      4.94000000 -0.689251200947489E+004  0.213827288555564E+002 
      4.96000000 -0.689130087106909E+004  0.225938672613493E+002 
      4.98000000 -0.689010215911197E+004  0.237925792184692E+002 
      5.00000000 -0.688892468680786E+004  0.249700515225882E+002 
      5.02000000 -0.688777681535391E+004  0.261179229765361E+002 
      5.04000000 -0.688666632884657E+004  0.272284094838743E+002 
      5.06000000 -0.688560034101553E+004  0.282943973149096E+002 
      5.08000000 -0.688458523455386E+004  0.293095037765804E+002 
      5.10000000 -0.688362663051210E+004  0.302681078183476E+002 
      5.12000000 -0.688272938188967E+004  0.311653564407773E+002 
      5.14000000 -0.688189758260712E+004  0.319971557233240E+002 
      5.16000000 -0.688113458083376E+004  0.327601574966871E+002 
      5.18000000 -0.688044298452677E+004  0.334517538036761E+002 
      5.20000000 -0.687982464717754E+004  0.340700911529073E+002 
      5.22000000 -0.687928062336415E+004  0.346141149662895E+002 
      5.24000000 -0.687881108665896E+004  0.350836516714797E+002 
      5.26000000 -0.687841520656452E+004  0.354795317659219E+002 
      5.28000000 -0.687809098616188E+004  0.358037521685611E+002 
      5.30000000 -0.687783506753769E+004  0.360596707927583E+002 
      5.32000000 -0.687764251730458E+004  0.362522210258646E+002 
      5.34000000 -0.687750660904193E+004  0.363881292885119E+002 
      5.36000000 -0.687741862270854E+004  0.364761156219062E+002 
      5.38000000 -0.687736768259816E+004  0.365270557322797E+002 
      5.40000000 -0.687734065500668E+004  0.365540833237645E+002 
      5.42000000 -0.687732212447517E+004  0.365726138552699E+002 
      5.44000000 -0.687729446356833E+004  0.366002747621181E+002 
      5.46000000 -0.687723800611284E+004  0.366567322176067E+002 
      5.48000000 -0.687713132817983E+004  0.367634101506132E+002 
      5.50000000 -0.687695163531885E+004  0.369431030115980E+002 
      5.52000000 -0.687667524894556E+004  0.372194893848835E+002 
      5.54000000 -0.687627817948402E+004  0.376165588464241E+002 
      5.56000000 -0.687573676889678E+004  0.381579694336623E+002 
      5.58000000 -0.687502838062757E+004  0.388663577028717E+002 
      5.60000000 -0.687413211080033E+004  0.397626275301091E+002 
      5.62000000 -0.687302949094597E+004  0.408652473844759E+002 
      5.64000000 -0.687170514987426E+004  0.421895884561829E+002 
      5.66000000 -0.687014740077715E+004  0.437473375532975E+002 
      5.68000000 -0.686834871954440E+004  0.455460187860467E+002 
      5.70000000 -0.686630608172326E+004  0.475886566071817E+002 
      5.72000000 -0.686402112867788E+004  0.498736096525627E+002 
      5.74000000 -0.686150013841920E+004  0.523945999112425E+002 
      5.76000000 -0.685875378351025E+004  0.551409548201912E+002 
      5.78000000 -0.685579666758868E+004  0.580980707417593E+002 
      5.80000000 -0.685264664363449E+004  0.612480946959538E+002 
      5.82000000 -0.684932393129880E+004  0.645708070316484E+002 
      5.84000000 -0.684585006706436E+004  0.680446712660850E+002 
      5.86000000 -0.684224673908131E+004  0.716479992491328E+002 
      5.88000000 -0.683853457689502E+004  0.753601614354277E+002 
      5.90000000 -0.683473198301842E+004  0.791627553120275E+002 
      5.92000000 -0.683085410609119E+004  0.830406322392575E+002 
      5.94000000 -0.682691206156840E+004  0.869826767620484E+002 
      5.96000000 -0.682291250286931E+004  0.909822354611361E+002 
      5.98000000 -0.681885763154954E+004  0.950371067809004E+002 
      6.00000000 -0.681474570804815E+004  0.991490302822975E+002 
