# Real time calculation: 
# Eall: Total energy
# Eall0: Initial total energy
# 1:Time[fs] 2:Eall[eV] 3:Eall-Eall0[eV] 
      0.00000000 -0.691389473833044E+004  0.000000000000000E+000 
      0.02000000 -0.691389473833939E+004 -0.895048967730787E-008 
      0.04000000 -0.691389473833183E+004 -0.138128182525463E-008 
      0.06000000 -0.691389473828198E+004  0.484655133602502E-007 
      0.08000000 -0.691389473810088E+004  0.229561924131792E-006 
      0.10000000 -0.691389473761022E+004  0.720223236152506E-006 
      0.12000000 -0.691389473650378E+004  0.182666014055055E-005 
      0.14000000 -0.691389473430642E+004  0.402402662466681E-005 
      0.16000000 -0.691389473033195E+004  0.799849338335145E-005 
      0.18000000 -0.691389472364179E+004  0.146886576581407E-004 
      0.20000000 -0.691389471300473E+004  0.253257110055423E-004 
      0.22000000 -0.691389469685910E+004  0.414713487546108E-004 
      0.24000000 -0.691389467327885E+004  0.650515959437840E-004 
      0.26000000 -0.691389463994474E+004  0.983856997768902E-004 
      0.28000000 -0.691389459412120E+004  0.144209241731807E-003 
      0.30000000 -0.691389453263994E+004  0.205690501805782E-003 
      0.32000000 -0.691389445189072E+004  0.286439728416864E-003 
      0.34000000 -0.691389434781914E+004  0.390511307774294E-003 
      0.36000000 -0.691389421593151E+004  0.522398937899453E-003 
      0.38000000 -0.691389405130686E+004  0.687023583786474E-003 
      0.40000000 -0.691389384861596E+004  0.889714488257417E-003 
      0.42000000 -0.691389360214514E+004  0.113618530502099E-002 
      0.44000000 -0.691389330582503E+004  0.143250541039258E-002 
      0.46000000 -0.691389295326480E+004  0.178506564425673E-002 
      0.48000000 -0.691389253779027E+004  0.220054017168491E-002 
      0.50000000 -0.691389205248488E+004  0.268584556884195E-002 
      0.52000000 -0.691389149023292E+004  0.324809752683873E-002 
      0.54000000 -0.691389084376505E+004  0.389456538930798E-002 
      0.56000000 -0.691389010570589E+004  0.463262455386572E-002 
      0.58000000 -0.691388926862379E+004  0.546970665393163E-002 
      0.60000000 -0.691388832508128E+004  0.641324916514427E-002 
      0.62000000 -0.691388726768436E+004  0.747064608215370E-002 
      0.64000000 -0.691388608912938E+004  0.864920106408792E-002 
      0.66000000 -0.691388478224759E+004  0.995608284915771E-002 
      0.68000000 -0.691388334004625E+004  0.113982841974850E-001 
      0.70000000 -0.691388175574465E+004  0.129825857975749E-001 
      0.72000000 -0.691388002280542E+004  0.147155250266081E-001 
      0.74000000 -0.691387813496055E+004  0.166033698955684E-001 
      0.76000000 -0.691387608623100E+004  0.186520994467959E-001 
      0.78000000 -0.691387387094171E+004  0.208673887331275E-001 
      0.80000000 -0.691387148373346E+004  0.232545969857407E-001 
      0.82000000 -0.691386891957022E+004  0.258187602189593E-001 
      0.84000000 -0.691386617374011E+004  0.285645903362103E-001 
      0.86000000 -0.691386324185013E+004  0.314964803086701E-001 
      0.88000000 -0.691386011981718E+004  0.346185132634188E-001 
      0.90000000 -0.691385680385331E+004  0.379344771330705E-001 
      0.92000000 -0.691385329044503E+004  0.414478854175376E-001 
      0.94000000 -0.691384957632821E+004  0.451620022296244E-001 
      0.96000000 -0.691384565845867E+004  0.490798717713959E-001 
      0.98000000 -0.691384153397853E+004  0.532043519118549E-001 
      1.00000000 -0.691383720018039E+004  0.575381500523193E-001 
      1.02000000 -0.691383265446984E+004  0.620838606050989E-001 
      1.04000000 -0.691382789432714E+004  0.668440033066648E-001 
      1.06000000 -0.691382291726933E+004  0.718210611100924E-001 
      1.08000000 -0.691381772081309E+004  0.770175173567009E-001 
      1.10000000 -0.691381230243816E+004  0.824358922856674E-001 
      1.12000000 -0.691380665955271E+004  0.880787777385400E-001 
      1.14000000 -0.691380078946178E+004  0.939488686611249E-001 
      1.16000000 -0.691379468933783E+004  0.100048992614658E+000 
      1.18000000 -0.691378835619117E+004  0.106382139272280E+000 
      1.20000000 -0.691378178684356E+004  0.112951486886907E+000 
      1.22000000 -0.691377497790646E+004  0.119760423986474E+000 
      1.24000000 -0.691376792576379E+004  0.126812566651564E+000 
      1.26000000 -0.691376062655851E+004  0.134111771933020E+000 
      1.28000000 -0.691375307618343E+004  0.141662147011251E+000 
      1.30000000 -0.691374527027606E+004  0.149468054385708E+000 
      1.32000000 -0.691373720421724E+004  0.157534113206664E+000 
      1.34000000 -0.691372887313418E+004  0.165865196267492E+000 
      1.36000000 -0.691372027190875E+004  0.174466421697630E+000 
      1.38000000 -0.691371139519057E+004  0.183343139870574E+000 
      1.40000000 -0.691370223741289E+004  0.192500917549296E+000 
      1.42000000 -0.691369279281259E+004  0.201945517857656E+000 
      1.44000000 -0.691368305545631E+004  0.211682874135818E+000 
      1.46000000 -0.691367301927113E+004  0.221719059316163E+000 
      1.48000000 -0.691366267807831E+004  0.232060252133704E+000 
      1.50000000 -0.691365202562987E+004  0.242712700576250E+000 
      1.52000000 -0.691364105564685E+004  0.253682683593672E+000 
      1.54000000 -0.691362976185798E+004  0.264976472459903E+000 
      1.56000000 -0.691361813803805E+004  0.276600292388618E+000 
      1.58000000 -0.691360617804939E+004  0.288560281051471E+000 
      1.60000000 -0.691359387588594E+004  0.300862444507003E+000 
      1.62000000 -0.691358122571734E+004  0.313512613098622E+000 
      1.64000000 -0.691356822193211E+004  0.326516398337107E+000 
      1.66000000 -0.691355485917823E+004  0.339879152213121E+000 
      1.68000000 -0.691354113240421E+004  0.353605926230523E+000 
      1.70000000 -0.691352703690028E+004  0.367701430164360E+000 
      1.72000000 -0.691351256833632E+004  0.382169994121245E+000 
      1.74000000 -0.691349772279611E+004  0.397015534334454E+000 
      1.76000000 -0.691348249680847E+004  0.412241521970631E+000 
      1.78000000 -0.691346688737508E+004  0.427850955360288E+000 
      1.80000000 -0.691345089199261E+004  0.443846337834663E+000 
      1.82000000 -0.691343450866791E+004  0.460229662535478E+000 
      1.84000000 -0.691341773592743E+004  0.477002403008927E+000 
      1.86000000 -0.691340057282169E+004  0.494165508749372E+000 
      1.88000000 -0.691338301892496E+004  0.511719405482412E+000 
      1.90000000 -0.691336507433066E+004  0.529663999784364E+000 
      1.92000000 -0.691334673964275E+004  0.547998687694001E+000 
      1.94000000 -0.691332801596172E+004  0.566722368728009E+000 
      1.96000000 -0.691330890486335E+004  0.585833467095949E+000 
      1.98000000 -0.691328940837359E+004  0.605329956855683E+000 
      2.00000000 -0.691326952893908E+004  0.625209391358801E+000 
      2.02000000 -0.691324926939292E+004  0.645468937522805E+000 
      2.04000000 -0.691322863291716E+004  0.666105413286590E+000 
      2.06000000 -0.691320762300251E+004  0.687115327938301E+000 
      2.08000000 -0.691318624340574E+004  0.708494924699956E+000 
      2.10000000 -0.691316449810626E+004  0.730240224182917E+000 
      2.12000000 -0.691314239126159E+004  0.752347068854953E+000 
      2.14000000 -0.691311992716257E+004  0.774811167877763E+000 
      2.16000000 -0.691309711018877E+004  0.797628141669169E+000 
      2.18000000 -0.691307394476539E+004  0.820793565053865E+000 
      2.20000000 -0.691305043532369E+004  0.844303006752918E+000 
      2.22000000 -0.691302658626467E+004  0.868152065775056E+000 
      2.24000000 -0.691300240192531E+004  0.892336405138193E+000 
      2.26000000 -0.691297788654887E+004  0.916851781570084E+000 
      2.28000000 -0.691295304425979E+004  0.941694070657553E+000 
      2.30000000 -0.691292787904293E+004  0.966859287515449E+000 
      2.32000000 -0.691290239472698E+004  0.992343603464118E+000 
      2.34000000 -0.691287659497256E+004  0.101814335788321E+001 
      2.36000000 -0.691285048326609E+004  0.104425506435399E+001 
      2.38000000 -0.691282406291875E+004  0.107067541169178E+001 
      2.40000000 -0.691279733706866E+004  0.109740126178824E+001 
      2.42000000 -0.691277030869023E+004  0.112442964021460E+001 
      2.44000000 -0.691274298060884E+004  0.115175772160452E+001 
      2.46000000 -0.691271535551951E+004  0.117938281092943E+001 
      2.48000000 -0.691268743601027E+004  0.120730232017610E+001 
      2.50000000 -0.691265922459020E+004  0.123551374024530E+001 
      2.52000000 -0.691263072372041E+004  0.126401461003622E+001 
      2.54000000 -0.691260193584853E+004  0.129280248191360E+001 
      2.56000000 -0.691257286344569E+004  0.132187488475650E+001 
      2.58000000 -0.691254350904311E+004  0.135122928733120E+001 
      2.60000000 -0.691251387527230E+004  0.138086305814886E+001 
      2.62000000 -0.691248396490527E+004  0.141077342517407E+001 
      2.64000000 -0.691245378089172E+004  0.144095743871973E+001 
      2.66000000 -0.691242332639461E+004  0.147141193583295E+001 
      2.68000000 -0.691239260482402E+004  0.150213350642746E+001 
      2.70000000 -0.691236161986904E+004  0.153311846140189E+001 
      2.72000000 -0.691233037552650E+004  0.156436280394304E+001 
      2.74000000 -0.691229887612636E+004  0.159586220408814E+001 
      2.76000000 -0.691226712635413E+004  0.162761197631656E+001 
      2.78000000 -0.691223513127117E+004  0.165960705927217E+001 
      2.80000000 -0.691220289632988E+004  0.169184200056616E+001 
      2.82000000 -0.691217042738621E+004  0.172431094423876E+001 
      2.84000000 -0.691213773070752E+004  0.175700762292477E+001 
      2.86000000 -0.691210481297401E+004  0.178992535643206E+001 
      2.88000000 -0.691207168127521E+004  0.182305705523267E+001 
      2.90000000 -0.691203834310168E+004  0.185639522876828E+001 
      2.92000000 -0.691200480633283E+004  0.188993199761340E+001 
      2.94000000 -0.691197107922025E+004  0.192365911018993E+001 
      2.96000000 -0.691193717036728E+004  0.195756796316006E+001 
      2.98000000 -0.691190308870557E+004  0.199164962487398E+001 
      3.00000000 -0.691186884346895E+004  0.202589486149750E+001 
      3.02000000 -0.691183444416468E+004  0.206029416575984E+001 
      3.04000000 -0.691179990054426E+004  0.209483778618642E+001 
      3.06000000 -0.691176522257275E+004  0.212951575769662E+001 
      3.08000000 -0.691173042040031E+004  0.216431793013661E+001 
      3.10000000 -0.691169550433478E+004  0.219923399566834E+001 
      3.12000000 -0.691166048481657E+004  0.223425351387391E+001 
      3.14000000 -0.691162537239498E+004  0.226936593546318E+001 
      3.16000000 -0.691159017770918E+004  0.230456062126526E+001 
      3.18000000 -0.691155491147369E+004  0.233982685674972E+001 
      3.20000000 -0.691151958446801E+004  0.237515386242878E+001 
      3.22000000 -0.691148420753119E+004  0.241053079925016E+001 
      3.24000000 -0.691144879156387E+004  0.244594676657002E+001 
      3.26000000 -0.691141334753579E+004  0.248139079465413E+001 
      3.28000000 -0.691137788649848E+004  0.251685183196329E+001 
      3.30000000 -0.691134241960444E+004  0.255231872599943E+001 
      3.32000000 -0.691130695813059E+004  0.258778019985319E+001 
      3.34000000 -0.691127151350594E+004  0.262322482450102E+001 
      3.36000000 -0.691123609734014E+004  0.265864099029932E+001 
      3.38000000 -0.691120072145535E+004  0.269401687509516E+001 
      3.40000000 -0.691116539792021E+004  0.272934041023016E+001 
      3.42000000 -0.691113013908199E+004  0.276459924845548E+001 
      3.44000000 -0.691109495759486E+004  0.279978073557917E+001 
      3.46000000 -0.691105986644754E+004  0.283487188290707E+001 
      3.48000000 -0.691102487898633E+004  0.286985934411831E+001 
      3.50000000 -0.691099000893050E+004  0.290472939994595E+001 
      3.52000000 -0.691095527038054E+004  0.293946794990005E+001 
      3.54000000 -0.691092067781991E+004  0.297406051053227E+001 
      3.56000000 -0.691088624610625E+004  0.300849222419600E+001 
      3.58000000 -0.691085199045453E+004  0.304274787590876E+001 
      3.60000000 -0.691081792641229E+004  0.307681191815336E+001 
      3.62000000 -0.691078406982581E+004  0.311066850462958E+001 
      3.64000000 -0.691075043680018E+004  0.314430153026497E+001 
      3.66000000 -0.691071704365491E+004  0.317769467552875E+001 
      3.68000000 -0.691068390687475E+004  0.321083145568855E+001 
      3.70000000 -0.691065104305852E+004  0.324369527192399E+001 
      3.72000000 -0.691061846886623E+004  0.327626946420981E+001 
      3.74000000 -0.691058620096660E+004  0.330853736383942E+001 
      3.76000000 -0.691055425598395E+004  0.334048234649906E+001 
      3.78000000 -0.691052265044607E+004  0.337208788437364E+001 
      3.80000000 -0.691049140073310E+004  0.340333759734161E+001 
      3.82000000 -0.691046052303034E+004  0.343421530010713E+001 
      3.84000000 -0.691043003328307E+004  0.346470504737554E+001 
      3.86000000 -0.691039994716024E+004  0.349479117020291E+001 
      3.88000000 -0.691037028002514E+004  0.352445830530765E+001 
      3.90000000 -0.691034104691423E+004  0.355369141621514E+001 
      3.92000000 -0.691031226252712E+004  0.358247580332729E+001 
      3.94000000 -0.691028394122456E+004  0.361079710587922E+001 
      3.96000000 -0.691025609703469E+004  0.363864129575216E+001 
      3.98000000 -0.691022874366791E+004  0.366599466253760E+001 
      4.00000000 -0.691020189453776E+004  0.369284379268507E+001 
      4.02000000 -0.691017556278808E+004  0.371917554236529E+001 
      4.04000000 -0.691014976132253E+004  0.374497700791724E+001 
      4.06000000 -0.691012450283651E+004  0.377023549393634E+001 
      4.08000000 -0.691009979984540E+004  0.379493848504021E+001 
      4.10000000 -0.691007566470450E+004  0.381907362594828E+001 
      4.12000000 -0.691005210961368E+004  0.384262871676108E+001 
      4.14000000 -0.691002914660241E+004  0.386559172803286E+001 
      4.16000000 -0.691000678749122E+004  0.388795083922784E+001 
      4.18000000 -0.690998504382920E+004  0.390969450124141E+001 
      4.20000000 -0.690996392681246E+004  0.393081151798083E+001 
      4.22000000 -0.690994344718535E+004  0.395129114509669E+001 
      4.24000000 -0.690992361513666E+004  0.397112319378557E+001 
      4.26000000 -0.690990444019687E+004  0.399029813357720E+001 
      4.28000000 -0.690988593113867E+004  0.400880719177206E+001 
      4.30000000 -0.690986809588985E+004  0.402664244059746E+001 
      4.32000000 -0.690985094146188E+004  0.404379686856167E+001 
      4.34000000 -0.690983447389687E+004  0.406026443357837E+001 
      4.36000000 -0.690981869823679E+004  0.407604009365412E+001 
      4.38000000 -0.690980361851924E+004  0.409111981119928E+001 
      4.40000000 -0.690978923779569E+004  0.410550053475272E+001 
      4.42000000 -0.690977555817059E+004  0.411918015985500E+001 
      4.44000000 -0.690976258085757E+004  0.413215747287370E+001 
      4.46000000 -0.690975030624045E+004  0.414443208999733E+001 
      4.48000000 -0.690973873392989E+004  0.415600440055556E+001 
      4.50000000 -0.690972786280977E+004  0.416687552066972E+001 
      4.52000000 -0.690971769106205E+004  0.417704726839750E+001 
      4.54000000 -0.690970821616886E+004  0.418652216158133E+001 
      4.56000000 -0.690969943489322E+004  0.419530343722655E+001 
      4.58000000 -0.690969134324158E+004  0.420339508886485E+001 
      4.60000000 -0.690968393641766E+004  0.421080191278469E+001 
      4.62000000 -0.690967720877670E+004  0.421752955374584E+001 
      4.64000000 -0.690967115378482E+004  0.422358454562431E+001 
      4.66000000 -0.690966576399133E+004  0.422897433910919E+001 
      4.68000000 -0.690966103101887E+004  0.423370731157344E+001 
      4.70000000 -0.690965694557049E+004  0.423779275995556E+001 
      4.72000000 -0.690965349745193E+004  0.424124087851218E+001 
      4.74000000 -0.690965067560258E+004  0.424406272785983E+001 
      4.76000000 -0.690964846813245E+004  0.424627019799513E+001 
      4.78000000 -0.690964686235965E+004  0.424787597079289E+001 
      4.80000000 -0.690964584484221E+004  0.424889348823276E+001 
      4.82000000 -0.690964540140060E+004  0.424933692984168E+001 
      4.84000000 -0.690964551713377E+004  0.424922119666909E+001 
      4.86000000 -0.690964617642949E+004  0.424856190095213E+001 
      4.88000000 -0.690964736297132E+004  0.424737535912258E+001 
      4.90000000 -0.690964905974840E+004  0.424567858204508E+001 
      4.92000000 -0.690965124907428E+004  0.424348925615947E+001 
      4.94000000 -0.690965391261537E+004  0.424082571507169E+001 
      4.96000000 -0.690965703143062E+004  0.423770689982765E+001 
      4.98000000 -0.690966058602127E+004  0.423415230917622E+001 
      5.00000000 -0.690966455638771E+004  0.423018194273639E+001 
      5.02000000 -0.690966892208632E+004  0.422581624412496E+001 
      5.04000000 -0.690967366228120E+004  0.422107604924664E+001 
      5.06000000 -0.690967875578672E+004  0.421598254372255E+001 
      5.08000000 -0.690968418109860E+004  0.421055723184622E+001 
      5.10000000 -0.690968991641449E+004  0.420482191595868E+001 
      5.12000000 -0.690969593965086E+004  0.419879867958386E+001 
      5.14000000 -0.690970222846002E+004  0.419250987042782E+001 
      5.16000000 -0.690970876025473E+004  0.418597807571522E+001 
      5.18000000 -0.690971551224844E+004  0.417922608200375E+001 
      5.20000000 -0.690972246151485E+004  0.417227681559262E+001 
      5.22000000 -0.690972958506751E+004  0.416515326293867E+001 
      5.24000000 -0.690973685995544E+004  0.415787837500001E+001 
      5.26000000 -0.690974426336491E+004  0.415047496553614E+001 
      5.28000000 -0.690975177271697E+004  0.414296561347321E+001 
      5.30000000 -0.690975936574737E+004  0.413537258307347E+001 
      5.32000000 -0.690976702055869E+004  0.412771777174974E+001 
      5.34000000 -0.690977471563859E+004  0.412002269185277E+001 
      5.36000000 -0.690978242984181E+004  0.411230848862943E+001 
      5.38000000 -0.690979014234378E+004  0.410459598666734E+001 
      5.40000000 -0.690979783257929E+004  0.409690575115156E+001 
      5.42000000 -0.690980548018304E+004  0.408925814740048E+001 
      5.44000000 -0.690981306495022E+004  0.408167338022228E+001 
      5.46000000 -0.690982056683391E+004  0.407417149653517E+001 
      5.48000000 -0.690982796599071E+004  0.406677233973410E+001 
      5.50000000 -0.690983524287709E+004  0.405949545335442E+001 
      5.52000000 -0.690984237838885E+004  0.405235994159259E+001 
      5.54000000 -0.690984935402742E+004  0.404538430302804E+001 
      5.56000000 -0.690985615207162E+004  0.403858625881904E+001 
      5.58000000 -0.690986275573005E+004  0.403198260039512E+001 
      5.60000000 -0.690986914925185E+004  0.402558907858873E+001 
      5.62000000 -0.690987531798082E+004  0.401942034962138E+001 
      5.64000000 -0.690988124834635E+004  0.401348998409203E+001 
      5.66000000 -0.690988692779697E+004  0.400781053347274E+001 
      5.68000000 -0.690989234469162E+004  0.400239363882391E+001 
      5.70000000 -0.690989748817219E+004  0.399725015825733E+001 
      5.72000000 -0.690990234804304E+004  0.399239028740628E+001 
      5.74000000 -0.690990691468123E+004  0.398782364920957E+001 
      5.76000000 -0.690991117899394E+004  0.398355933650314E+001 
      5.78000000 -0.690991513243040E+004  0.397960590003867E+001 
      5.80000000 -0.690991876704335E+004  0.397597128709537E+001 
      5.82000000 -0.690992207558477E+004  0.397266274567122E+001 
      5.84000000 -0.690992505161419E+004  0.396968671625567E+001 
      5.86000000 -0.690992768959364E+004  0.396704873680121E+001 
      5.88000000 -0.690992998494770E+004  0.396475338274280E+001 
      5.90000000 -0.690993193407319E+004  0.396280425725462E+001 
      5.92000000 -0.690993353429381E+004  0.396120403663130E+001 
      5.94000000 -0.690993478376611E+004  0.395995456433033E+001 
      5.96000000 -0.690993568135280E+004  0.395905697764472E+001 
      5.98000000 -0.690993622648587E+004  0.395851184457441E+001 
      6.00000000 -0.690993641904317E+004  0.395831928727081E+001 
