# Real time calculation: 
# Eall: Total energy
# Eall0: Initial energy
# 1:Time[fs] 2:Eall[eV] 3:Eall-Eall0[eV] 
      0.00000000 -0.837982752447043E+003  0.000000000000000E+000 
      0.02000000 -0.837982752446963E+003  0.797562644061500E-010 
      0.04000000 -0.837982752446881E+003  0.161252665490252E-009 
      0.06000000 -0.837982752446800E+003  0.242459043794696E-009 
      0.08000000 -0.837982752446719E+003  0.323182050799709E-009 
      0.10000000 -0.837982752446638E+003  0.404678451883811E-009 
      0.12000000 -0.837982752446557E+003  0.485208110369051E-009 
      0.14000000 -0.837982752446476E+003  0.566414488673495E-009 
      0.16000000 -0.837982752446394E+003  0.648974306616346E-009 
      0.18000000 -0.837982752446311E+003  0.731920821598742E-009 
      0.20000000 -0.837982752446227E+003  0.815640730660228E-009 
      0.22000000 -0.837982752446141E+003  0.901777496218870E-009 
      0.24000000 -0.837982752446052E+003  0.990524466794440E-009 
      0.26000000 -0.837982752445961E+003  0.108197831664683E-008 
      0.28000000 -0.837982752445864E+003  0.117874925079295E-008 
      0.30000000 -0.837982752445762E+003  0.128025722367351E-008 
      0.32000000 -0.837982752445653E+003  0.138998250864439E-008 
      0.34000000 -0.837982752445537E+003  0.150560492346834E-008 
      0.36000000 -0.837982752445410E+003  0.163215152965943E-008 
      0.38000000 -0.837982752445274E+003  0.176836556183915E-008 
      0.40000000 -0.837982752445125E+003  0.191753394484362E-008 
      0.42000000 -0.837982752444962E+003  0.208072009553160E-008 
      0.44000000 -0.837982752444785E+003  0.225734396834376E-008 
      0.46000000 -0.837982752444592E+003  0.245040246533659E-008 
      0.48000000 -0.837982752444382E+003  0.266018560928973E-008 
      0.50000000 -0.837982752444155E+003  0.288775681706195E-008 
      0.52000000 -0.837982752443909E+003  0.313388948273232E-008 
      0.54000000 -0.837982752443644E+003  0.339839025778108E-008 
      0.56000000 -0.837982752443363E+003  0.367932565701050E-008 
      0.58000000 -0.837982752443065E+003  0.397795244579910E-008 
      0.60000000 -0.837982752442750E+003  0.429282051024860E-008 
      0.62000000 -0.837982752442421E+003  0.462180301664148E-008 
      0.64000000 -0.837982752442081E+003  0.496161304014162E-008 
      0.66000000 -0.837982752441729E+003  0.531370069464732E-008 
      0.68000000 -0.837982752441372E+003  0.567033203936766E-008 
      0.70000000 -0.837982752441009E+003  0.603363390802016E-008 
      0.72000000 -0.837982752440648E+003  0.639432557165573E-008 
      0.74000000 -0.837982752440290E+003  0.675260037879415E-008 
      0.76000000 -0.837982752439939E+003  0.710333459366144E-008 
      0.78000000 -0.837982752439600E+003  0.744256457160226E-008 
      0.80000000 -0.837982752439277E+003  0.776593997092174E-008 
      0.82000000 -0.837982752438972E+003  0.807056056382329E-008 
      0.84000000 -0.837982752438690E+003  0.835275272843123E-008 
      0.86000000 -0.837982752438434E+003  0.860816612305069E-008 
      0.88000000 -0.837982752438207E+003  0.883554398230313E-008 
      0.90000000 -0.837982752438010E+003  0.903266279821118E-008 
      0.92000000 -0.837982752437843E+003  0.919961924503472E-008 
      0.94000000 -0.837982752437707E+003  0.933515655739523E-008 
      0.96000000 -0.837982752437601E+003  0.944149824327010E-008 
      0.98000000 -0.837982752437522E+003  0.952028776507739E-008 
      1.00000000 -0.837982752437467E+003  0.957529541895266E-008 
      1.02000000 -0.837982752437430E+003  0.961222498622920E-008 
      1.04000000 -0.837982752437405E+003  0.963755364231940E-008 
      1.06000000 -0.837982752437380E+003  0.966239892711016E-008 
      1.08000000 -0.837982752437350E+003  0.969227127341501E-008 
      1.10000000 -0.837982752437298E+003  0.974408867671404E-008 
      1.12000000 -0.837982752437215E+003  0.982713186595632E-008 
      1.14000000 -0.837982752437083E+003  0.995986562478013E-008 
      1.16000000 -0.837982752436887E+003  0.101553409782701E-007 
      1.18000000 -0.837982752436608E+003  0.104342462180419E-007 
      1.20000000 -0.837982752436228E+003  0.108150461277338E-007 
      1.22000000 -0.837982752435724E+003  0.113183323247016E-007 
      1.24000000 -0.837982752435079E+003  0.119631496381428E-007 
      1.26000000 -0.837982752434269E+003  0.127738599815489E-007 
      1.28000000 -0.837982752433271E+003  0.137713449950551E-007 
      1.30000000 -0.837982752432066E+003  0.149761962960174E-007 
      1.32000000 -0.837982752430631E+003  0.164115190325484E-007 
      1.34000000 -0.837982752428943E+003  0.180991615873825E-007 
      1.36000000 -0.837982752426986E+003  0.200567186758191E-007 
      1.38000000 -0.837982752424739E+003  0.223036218240951E-007 
      1.40000000 -0.837982752422186E+003  0.248564023306512E-007 
      1.42000000 -0.837982752419311E+003  0.277312047968884E-007 
      1.44000000 -0.837982752416105E+003  0.309374066260157E-007 
      1.46000000 -0.837982752412555E+003  0.344879621688577E-007 
      1.48000000 -0.837982752408658E+003  0.383842248650529E-007 
      1.50000000 -0.837982752404408E+003  0.426344120266917E-007 
      1.52000000 -0.837982752399811E+003  0.472315631070622E-007 
      1.54000000 -0.837982752394869E+003  0.521731645754073E-007 
      1.56000000 -0.837982752389591E+003  0.574514824909363E-007 
      1.58000000 -0.837982752383992E+003  0.630506622750277E-007 
      1.60000000 -0.837982752378089E+003  0.689531092123822E-007 
      1.62000000 -0.837982752371906E+003  0.751368782460057E-007 
      1.64000000 -0.837982752365465E+003  0.815775107881470E-007 
      1.66000000 -0.837982752358801E+003  0.882414608706254E-007 
      1.68000000 -0.837982752351947E+003  0.950952791995205E-007 
      1.70000000 -0.837982752344944E+003  0.102098459259940E-006 
      1.72000000 -0.837982752337831E+003  0.109211461279590E-006 
      1.74000000 -0.837982752330651E+003  0.116391071864301E-006 
      1.76000000 -0.837982752323457E+003  0.123585183587996E-006 
      1.78000000 -0.837982752316296E+003  0.130746812760369E-006 
      1.80000000 -0.837982752309216E+003  0.137826752183138E-006 
      1.82000000 -0.837982752302271E+003  0.144771444316326E-006 
      1.84000000 -0.837982752295513E+003  0.151529458453674E-006 
      1.86000000 -0.837982752288989E+003  0.158054004253396E-006 
      1.88000000 -0.837982752282752E+003  0.164290750781437E-006 
      1.90000000 -0.837982752276847E+003  0.170195904598069E-006 
      1.92000000 -0.837982752271315E+003  0.175727122377460E-006 
      1.94000000 -0.837982752266198E+003  0.180844380976019E-006 
      1.96000000 -0.837982752261528E+003  0.185514714471123E-006 
      1.98000000 -0.837982752257336E+003  0.189706317031271E-006 
      2.00000000 -0.837982752253640E+003  0.193402173986722E-006 
      2.02000000 -0.837982752250458E+003  0.196584400599397E-006 
      2.04000000 -0.837982752247793E+003  0.199249613270201E-006 
      2.06000000 -0.837982752245645E+003  0.201397908673393E-006 
      2.08000000 -0.837982752244000E+003  0.203042144485538E-006 
      2.10000000 -0.837982752242837E+003  0.204205232506230E-006 
      2.12000000 -0.837982752242125E+003  0.204917625127331E-006 
      2.14000000 -0.837982752241821E+003  0.205221182303374E-006 
      2.16000000 -0.837982752241872E+003  0.205170524991194E-006 
      2.18000000 -0.837982752242216E+003  0.204826557974519E-006 
      2.20000000 -0.837982752242778E+003  0.204264783850320E-006 
      2.22000000 -0.837982752243475E+003  0.203567279065240E-006 
      2.24000000 -0.837982752244214E+003  0.202828591045450E-006 
      2.26000000 -0.837982752244892E+003  0.202150227763828E-006 
      2.28000000 -0.837982752245397E+003  0.201645201430182E-006 
      2.30000000 -0.837982752245614E+003  0.201428844436557E-006 
      2.32000000 -0.837982752245415E+003  0.201627220017843E-006 
      2.34000000 -0.837982752244674E+003  0.202369001613950E-006 
      2.36000000 -0.837982752243254E+003  0.203788856468900E-006 
      2.38000000 -0.837982752241020E+003  0.206022515243571E-006 
      2.40000000 -0.837982752237835E+003  0.209208028781083E-006 
      2.42000000 -0.837982752233561E+003  0.213481514439354E-006 
      2.44000000 -0.837982752228063E+003  0.218979379599085E-006 
      2.46000000 -0.837982752221210E+003  0.225832134511121E-006 
      2.48000000 -0.837982752212880E+003  0.234162555485519E-006 
      2.50000000 -0.837982752202950E+003  0.244092838786774E-006 
      2.52000000 -0.837982752191313E+003  0.255729422775021E-006 
      2.54000000 -0.837982752177872E+003  0.269170818521084E-006 
      2.56000000 -0.837982752162539E+003  0.284503742836082E-006 
      2.58000000 -0.837982752145242E+003  0.301800121369369E-006 
      2.60000000 -0.837982752125925E+003  0.321117571979838E-006 
      2.62000000 -0.837982752104549E+003  0.342493507606065E-006 
      2.64000000 -0.837982752081089E+003  0.365953160229879E-006 
      2.66000000 -0.837982752055545E+003  0.391497883290921E-006 
      2.68000000 -0.837982752027931E+003  0.419111048816488E-006 
      2.70000000 -0.837982751998285E+003  0.448757564050243E-006 
      2.72000000 -0.837982751966662E+003  0.480380101156072E-006 
      2.74000000 -0.837982751933144E+003  0.513898613846790E-006 
      2.76000000 -0.837982751897826E+003  0.549216427862512E-006 
      2.78000000 -0.837982751860830E+003  0.586212893726898E-006 
      2.80000000 -0.837982751822294E+003  0.624748317134413E-006 
      2.82000000 -0.837982751782376E+003  0.664666762503860E-006 
      2.84000000 -0.837982751741252E+003  0.705790252522790E-006 
      2.86000000 -0.837982751699115E+003  0.747927855527926E-006 
      2.88000000 -0.837982751656171E+003  0.790871625186254E-006 
      2.90000000 -0.837982751612641E+003  0.834401530882272E-006 
      2.92000000 -0.837982751568755E+003  0.878287294528931E-006 
      2.94000000 -0.837982751524754E+003  0.922288680590414E-006 
      2.96000000 -0.837982751480883E+003  0.966159943098090E-006 
      2.98000000 -0.837982751437389E+003  0.100965311257535E-005 
      3.00000000 -0.837982751394527E+003  0.105251596587815E-005 
      3.02000000 -0.837982751352541E+003  0.109450121024971E-005 
      3.04000000 -0.837982751311674E+003  0.113536851347994E-005 
      3.06000000 -0.837982751272163E+003  0.117487928349545E-005 
      3.08000000 -0.837982751234230E+003  0.121281232958961E-005 
      3.10000000 -0.837982751198086E+003  0.124895603180754E-005 
      3.12000000 -0.837982751163923E+003  0.128311916846318E-005 
      3.14000000 -0.837982751131915E+003  0.131512733919170E-005 
      3.16000000 -0.837982751102210E+003  0.134483224567842E-005 
      3.18000000 -0.837982751074938E+003  0.137210444108937E-005 
      3.20000000 -0.837982751050195E+003  0.139684744451318E-005 
      3.22000000 -0.837982751028050E+003  0.141899300392236E-005 
      3.24000000 -0.837982751008542E+003  0.143850032277924E-005 
      3.26000000 -0.837982750991677E+003  0.145536553411344E-005 
      3.28000000 -0.837982750977427E+003  0.146961570671771E-005 
      3.30000000 -0.837982750965728E+003  0.148131464560358E-005 
      3.32000000 -0.837982750956484E+003  0.149055844498539E-005 
      3.34000000 -0.837982750949563E+003  0.149747954859916E-005 
      3.36000000 -0.837982750944798E+003  0.150224481621747E-005 
      3.38000000 -0.837982750941988E+003  0.150505436355829E-005 
      3.40000000 -0.837982750940897E+003  0.150614581595240E-005 
      3.42000000 -0.837982750941262E+003  0.150578019390151E-005 
      3.44000000 -0.837982750942790E+003  0.150425274059531E-005 
      3.46000000 -0.837982750945156E+003  0.150188654141034E-005 
      3.48000000 -0.837982750948018E+003  0.149902430659788E-005 
      3.50000000 -0.837982750951008E+003  0.149603484845942E-005 
      3.52000000 -0.837982750953742E+003  0.149330051369280E-005 
      3.54000000 -0.837982750955819E+003  0.149122375724192E-005 
      3.56000000 -0.837982750956833E+003  0.149020964425572E-005 
      3.58000000 -0.837982750956364E+003  0.149067812771912E-005 
      3.60000000 -0.837982750953999E+003  0.149304307013872E-005 
      3.62000000 -0.837982750949321E+003  0.149772191096870E-005 
      3.64000000 -0.837982750941921E+003  0.150512193886595E-005 
      3.66000000 -0.837982750931403E+003  0.151563961497027E-005 
      3.68000000 -0.837982750917385E+003  0.152965718930526E-005 
      3.70000000 -0.837982750899510E+003  0.154753284000378E-005 
      3.72000000 -0.837982750877438E+003  0.156960444360415E-005 
      3.74000000 -0.837982750850866E+003  0.159617623400222E-005 
      3.76000000 -0.837982750819520E+003  0.162752247607330E-005 
      3.78000000 -0.837982750783163E+003  0.166387953838280E-005 
      3.80000000 -0.837982750741599E+003  0.170544376635255E-005 
      3.82000000 -0.837982750694673E+003  0.175236935542707E-005 
      3.84000000 -0.837982750642279E+003  0.180476351736058E-005 
      3.86000000 -0.837982750584357E+003  0.186268590017142E-005 
      3.88000000 -0.837982750520897E+003  0.192614539789151E-005 
      3.90000000 -0.837982750451938E+003  0.199510488760504E-005 
      3.92000000 -0.837982750377575E+003  0.206946701833232E-005 
      3.94000000 -0.837982750297953E+003  0.214908938888853E-005 
      3.96000000 -0.837982750213266E+003  0.223377691061721E-005 
      3.98000000 -0.837982750123760E+003  0.232328306415567E-005 
      4.00000000 -0.837982750029731E+003  0.241731154289735E-005 
      4.02000000 -0.837982749931521E+003  0.251552157007614E-005 
      4.04000000 -0.837982749829516E+003  0.261752702869807E-005 
      4.06000000 -0.837982749724142E+003  0.272290023183740E-005 
      4.08000000 -0.837982749615868E+003  0.283117453284165E-005 
      4.10000000 -0.837982749505188E+003  0.294185428278039E-005 
      4.12000000 -0.837982749392632E+003  0.305441038342927E-005 
      4.14000000 -0.837982749278750E+003  0.316829285492378E-005 
      4.16000000 -0.837982749164111E+003  0.328293189917616E-005 
      4.18000000 -0.837982749049298E+003  0.339774437705078E-005 
      4.20000000 -0.837982748934902E+003  0.351214038221381E-005 
      4.22000000 -0.837982748821515E+003  0.362552768814919E-005 
      4.24000000 -0.837982748709720E+003  0.373732218897868E-005 
      4.26000000 -0.837982748600099E+003  0.384694345244592E-005 
      4.28000000 -0.837982748493205E+003  0.395383734169326E-005 
      4.30000000 -0.837982748389578E+003  0.405746480104756E-005 
      4.32000000 -0.837982748289721E+003  0.415732177091778E-005 
      4.34000000 -0.837982748194109E+003  0.425293377403639E-005 
      4.36000000 -0.837982748103175E+003  0.434386790306763E-005 
      4.38000000 -0.837982748017302E+003  0.442974026452548E-005 
      4.40000000 -0.837982747936836E+003  0.451020679471902E-005 
      4.42000000 -0.837982747862057E+003  0.458498588152918E-005 
      4.44000000 -0.837982747793191E+003  0.465385150053637E-005 
      4.46000000 -0.837982747730409E+003  0.471663340836891E-005 
      4.48000000 -0.837982747673813E+003  0.477322922698559E-005 
      4.50000000 -0.837982747623444E+003  0.482359864322004E-005 
      4.52000000 -0.837982747579273E+003  0.486776911256207E-005 
      4.54000000 -0.837982747541210E+003  0.490583218553578E-005 
      4.56000000 -0.837982747509094E+003  0.493794863143537E-005 
      4.58000000 -0.837982747482700E+003  0.496434244452099E-005 
      4.60000000 -0.837982747461741E+003  0.498530200410989E-005 
      4.62000000 -0.837982747445864E+003  0.500117823776544E-005 
      4.64000000 -0.837982747434662E+003  0.501238036762976E-005 
      4.66000000 -0.837982747427669E+003  0.501937368691567E-005 
      4.68000000 -0.837982747424368E+003  0.502267443617097E-005 
      4.70000000 -0.837982747424199E+003  0.502284380947429E-005 
      4.72000000 -0.837982747426557E+003  0.502048592427566E-005 
      4.74000000 -0.837982747430801E+003  0.501624124754684E-005 
      4.76000000 -0.837982747436266E+003  0.501077605828695E-005 
      4.78000000 -0.837982747442258E+003  0.500478438100772E-005 
      4.80000000 -0.837982747448069E+003  0.499897367794300E-005 
      4.82000000 -0.837982747452984E+003  0.499405817852482E-005 
      4.84000000 -0.837982747456284E+003  0.499075858936065E-005 
      4.86000000 -0.837982747457255E+003  0.498978749642009E-005 
      4.88000000 -0.837982747455198E+003  0.499184482134473E-005 
      4.90000000 -0.837982747449431E+003  0.499761202099250E-005 
      4.92000000 -0.837982747439301E+003  0.500774203331468E-005 
      4.94000000 -0.837982747424188E+003  0.502285483033992E-005 
      4.96000000 -0.837982747403512E+003  0.504353084432457E-005 
      4.98000000 -0.837982747376740E+003  0.507030265376635E-005 
      5.00000000 -0.837982747343390E+003  0.510365217985078E-005 
      5.02000000 -0.837982747303041E+003  0.514400130904802E-005 
      5.04000000 -0.837982747255331E+003  0.519171179643856E-005 
      5.06000000 -0.837982747199963E+003  0.524707985195469E-005 
      5.08000000 -0.837982747136713E+003  0.531032927650804E-005 
      5.10000000 -0.837982747065427E+003  0.538161581233130E-005 
      5.12000000 -0.837982746986030E+003  0.546101293186197E-005 
      5.14000000 -0.837982746898516E+003  0.554852691892695E-005 
      5.16000000 -0.837982746802959E+003  0.564408391439169E-005 
      5.18000000 -0.837982746699512E+003  0.574753078622852E-005 
      5.20000000 -0.837982746588399E+003  0.585864315348026E-005 
      5.22000000 -0.837982746469920E+003  0.597712248603236E-005 
      5.24000000 -0.837982746344445E+003  0.610259765140113E-005 
      5.26000000 -0.837982746212411E+003  0.623463177860615E-005 
      5.28000000 -0.837982746074321E+003  0.637272129142766E-005 
      5.30000000 -0.837982745930735E+003  0.651630760599204E-005 
      5.32000000 -0.837982745782272E+003  0.666477094361916E-005 
      5.34000000 -0.837982745629590E+003  0.681745285592494E-005 
      5.36000000 -0.837982745473400E+003  0.697364307712199E-005 
      5.38000000 -0.837982745314439E+003  0.713260359591034E-005 
      5.40000000 -0.837982745153478E+003  0.729356411178721E-005 
      5.42000000 -0.837982744991307E+003  0.745573556944342E-005 
      5.44000000 -0.837982744828728E+003  0.761831499247635E-005 
      5.46000000 -0.837982744666549E+003  0.778049379737632E-005 
      5.48000000 -0.837982744505577E+003  0.794146562414160E-005 
      5.50000000 -0.837982744346605E+003  0.810043726046984E-005 
      5.52000000 -0.837982744190413E+003  0.825662912512930E-005 
      5.54000000 -0.837982744037751E+003  0.840929199260588E-005 
      5.56000000 -0.837982743889335E+003  0.855770805651992E-005 
      5.58000000 -0.837982743745846E+003  0.870119624671052E-005 
      5.60000000 -0.837982743607914E+003  0.883912876053397E-005 
      5.62000000 -0.837982743476117E+003  0.897092545575670E-005 
      5.64000000 -0.837982743350975E+003  0.909606767497443E-005 
      5.66000000 -0.837982743232943E+003  0.921409921235474E-005 
      5.68000000 -0.837982743122411E+003  0.932463201741845E-005 
      5.70000000 -0.837982743019693E+003  0.942734986866149E-005 
      5.72000000 -0.837982742925031E+003  0.952201175715394E-005 
      5.74000000 -0.837982742838588E+003  0.960845440007086E-005 
      5.76000000 -0.837982742760452E+003  0.968659079057835E-005 
      5.78000000 -0.837982742690628E+003  0.975641406480397E-005 
      5.80000000 -0.837982742629043E+003  0.981799991869320E-005 
      5.82000000 -0.837982742575544E+003  0.987149887406869E-005 
      5.84000000 -0.837982742529906E+003  0.991713666532727E-005 
      5.86000000 -0.837982742491826E+003  0.995521684964498E-005 
      5.88000000 -0.837982742460931E+003  0.998611123622535E-005 
      5.90000000 -0.837982742436781E+003  0.100102612397390E-004 
      5.92000000 -0.837982742418875E+003  0.100281672461551E-004 
      5.94000000 -0.837982742406652E+003  0.100403907395752E-004 
      5.96000000 -0.837982742399501E+003  0.100475412512076E-004 
      5.98000000 -0.837982742396768E+003  0.100502750059287E-004 
      6.00000000 -0.837982742397756E+003  0.100492868983184E-004 
