# Real time calculation: 
# Eall: Total energy
# Eall0: Initial total energy
# Tion: Kinetic energy of ions
# Temperature_ion: Temperature of ions
# E_work: Work energy of ions(sum f*dr)
# 1:Time[fs] 2:Eall[eV] 3:Eall-Eall0[eV] # 4:Tion[eV] 5:Temperature_ion[K] 6:E_work[eV] 
      0.00000000 -0.233299435513041E+005  0.000000000000000E+000   0.000000000000000E+000  0.000000000000000E+000  0.000000000000000E+000 
      0.02000000 -0.233299436526663E+005 -0.101362219032409E-003   0.103262295768338E-003  0.369848651834902E-002 -0.103262302141146E-003 
      0.04000000 -0.233299439566392E+005 -0.405335119141332E-003   0.413054007611787E-003  0.147941188711266E-001 -0.413054030192487E-003 
      0.06000000 -0.233299444632385E+005 -0.911934431162337E-003   0.929373465810590E-003  0.332868372549363E-001 -0.929373510005941E-003 
      0.08000000 -0.233299451724470E+005 -0.162114290222031E-002   0.165221261881422E-002  0.591763532920034E-001 -0.165221268731580E-002 
      0.10000000 -0.233299460842445E+005 -0.253294040241415E-002   0.258156204834279E-002  0.924623296531898E-001 -0.258156214166126E-002 
      0.12000000 -0.233299471986092E+005 -0.364730513440515E-002   0.371741375778924E-002  0.133144479928600E+000 -0.371741387545010E-002 
      0.14000000 -0.233299485155160E+005 -0.496421186698486E-002   0.505976047229196E-002  0.181222543558681E+000 -0.505976061419787E-002 
      0.16000000 -0.233299500349331E+005 -0.648362899927121E-002   0.660859355893789E-002  0.236696211343329E+000 -0.660859372578460E-002 
      0.18000000 -0.233299517568195E+005 -0.820551535885701E-002   0.836390001737754E-002  0.299565017656471E+000 -0.836390021128576E-002 
      0.20000000 -0.233299536811213E+005 -0.101298172134152E-001   0.103256595383554E-001  0.369828235093131E+000 -0.103256597624119E-001 
      0.22000000 -0.233299558077726E+005 -0.122564684686878E-001   0.124938438230840E-001  0.447484850091841E+000 -0.124938440809579E-001 
      0.24000000 -0.233299581366967E+005 -0.145853925679418E-001   0.148684188908420E-001  0.532533645584568E+000 -0.148684191858028E-001 
      0.26000000 -0.233299606678092E+005 -0.171165050689179E-001   0.174493485025561E-001  0.624973323617167E+000 -0.174493488370934E-001 
      0.28000000 -0.233299634010188E+005 -0.198497146770855E-001   0.202365964885404E-001  0.724802588720716E+000 -0.202365968642068E-001 
      0.30000000 -0.233299663362264E+005 -0.227849222556980E-001   0.232301270893018E-001  0.832020160117921E+000 -0.232301275074247E-001 
      0.32000000 -0.233299694733232E+005 -0.259220191397936E-001   0.264299035864020E-001  0.946624722685510E+000 -0.264299040482126E-001 
      0.34000000 -0.233299728121895E+005 -0.292608853450150E-001   0.298358863499256E-001  0.106861485702149E+001 -0.298358868569164E-001 
      0.36000000 -0.233299763526926E+005 -0.328013884879509E-001   0.334480312976168E-001  0.119798898425694E+001 -0.334480318516276E-001 
      0.38000000 -0.233299800946875E+005 -0.365433833901583E-001   0.372662889886324E-001  0.133474533359751E+001 -0.372662895918679E-001 
      0.40000000 -0.233299840380165E+005 -0.404867124277367E-001   0.412906041900278E-001  0.147888192679644E+001 -0.412906048449413E-001 
      0.42000000 -0.233299881825106E+005 -0.446312064594010E-001   0.455209163542323E-001  0.163039659525605E+001 -0.455209170633964E-001 
      0.44000000 -0.233299925279909E+005 -0.489766868125575E-001   0.499571608374113E-001  0.178928702366514E+001 -0.499571616031894E-001 
      0.46000000 -0.233299970742702E+005 -0.535229661031016E-001   0.545992700126605E-001  0.195555078986961E+001 -0.545992708374994E-001 
      0.48000000 -0.233300018211541E+005 -0.582698500389727E-001   0.594471741509161E-001  0.212918539642350E+001 -0.594471750369061E-001 
      0.50000000 -0.233300067684422E+005 -0.632171380667118E-001   0.645008016944965E-001  0.231018828038630E+001 -0.645008026436050E-001 
      0.52000000 -0.233300119159279E+005 -0.683646237612520E-001   0.697600790601346E-001  0.249855680626828E+001 -0.697600800742212E-001 
      0.54000000 -0.233300172633981E+005 -0.737120939535302E-001   0.752249296560501E-001  0.269428823082549E+001 -0.752249307370382E-001 
      0.56000000 -0.233300228106331E+005 -0.792593289810663E-001   0.808952726951807E-001  0.289737966055399E+001 -0.808952738453089E-001 
      0.58000000 -0.233300285574071E+005 -0.850061030406316E-001   0.867710224511914E-001  0.310782802504272E+001 -0.867710236726138E-001 
      0.60000000 -0.233300345034885E+005 -0.909521843522075E-001   0.928520879234341E-001  0.332563006497357E+001 -0.928520892185759E-001 
      0.62000000 -0.233300406486422E+005 -0.970973380607610E-001   0.991383732599816E-001  0.355078234727296E+001 -0.991383746312283E-001 
      0.64000000 -0.233300469926297E+005 -0.103441325589687E+000   0.105629778699697E+000  0.378328129885338E+001 -0.105629780149450E+000 
      0.66000000 -0.233300535352119E+005 -0.109983907771505E+000   0.112326201226223E+000  0.402312323003692E+001 -0.112326202756779E+000 
      0.68000000 -0.233300602761490E+005 -0.116724844931393E+000   0.119227534812780E+000  0.427030434332317E+001 -0.119227536426382E+000 
      0.70000000 -0.233300672152018E+005 -0.123663897741004E+000   0.126333670442300E+000  0.452482073411017E+001 -0.126333672141334E+000 
      0.72000000 -0.233300743521317E+005 -0.130800827605171E+000   0.133644495972684E+000  0.478666838586863E+001 -0.133644497759229E+000 
      0.74000000 -0.233300816867006E+005 -0.138135396451543E+000   0.141159895758450E+000  0.505584315659054E+001 -0.141159897634828E+000 
      0.76000000 -0.233300892186706E+005 -0.145667366535686E+000   0.148879750140598E+000  0.533234076051795E+001 -0.148879752108957E+000 
      0.78000000 -0.233300969478049E+005 -0.153396500762817E+000   0.156803935045285E+000  0.561615675376916E+001 -0.156803937107919E+000 
      0.80000000 -0.233301048738670E+005 -0.161322562907448E+000   0.164932321964420E+000  0.590728653364341E+001 -0.164932324123616E+000 
      0.82000000 -0.233301129966226E+005 -0.169445318529087E+000   0.173264778450948E+000  0.620572535636038E+001 -0.173264780709124E+000 
      0.84000000 -0.233301213158395E+005 -0.177764535436268E+000   0.181801168686419E+000  0.651146835738840E+001 -0.181801171045846E+000 
      0.86000000 -0.233301298312881E+005 -0.186279984029944E+000   0.190541353761216E+000  0.682451056148130E+001 -0.190541356224145E+000 
      0.88000000 -0.233301385427402E+005 -0.194991436127928E+000   0.199485191635027E+000  0.714484688126251E+001 -0.199485194203654E+000 
      0.90000000 -0.233301474499703E+005 -0.203898666193036E+000   0.208632536913513E+000  0.747247210922627E+001 -0.208632539590097E+000 
      0.92000000 -0.233301565527532E+005 -0.213001449099534E+000   0.217983240603222E+000  0.780738090895943E+001 -0.217983243390037E+000 
      0.94000000 -0.233301658508652E+005 -0.222299561082860E+000   0.227537149852270E+000  0.814956780585361E+001 -0.227537152751501E+000 
      0.96000000 -0.233301753440819E+005 -0.231792777759735E+000   0.237294107884797E+000  0.849902718475754E+001 -0.237294110898736E+000 
      0.98000000 -0.233301850321789E+005 -0.241480874818036E+000   0.247253954037052E+000  0.885575329126968E+001 -0.247253957167950E+000 
      1.00000000 -0.233301949149322E+005 -0.251363628103409E+000   0.257416523880730E+000  0.921974023615562E+001 -0.257416527130868E+000 
      1.02000000 -0.233302049921169E+005 -0.261440812818037E+000   0.267781649454437E+000  0.959098200363819E+001 -0.267781652826060E+000 
      1.04000000 -0.233302152635075E+005 -0.271712203424740E+000   0.278349159647792E+000  0.996947246515499E+001 -0.278349163143160E+000 
      1.06000000 -0.233302257288763E+005 -0.282177572186802E+000   0.289118880124456E+000  0.103552053766011E+002 -0.289118883745734E+000 
      1.08000000 -0.233302363879918E+005 -0.292836687729465E+000   0.300090633187126E+000  0.107481743734940E+002 -0.300090636936473E+000 
      1.10000000 -0.233302472406210E+005 -0.303689316933192E+000   0.311264237801672E+000  0.111483729718378E+002 -0.311264241681288E+000 
      1.12000000 -0.233302582865271E+005 -0.314735223034212E+000   0.322639509282911E+000  0.115557945568693E+002 -0.322639513294945E+000 
      1.14000000 -0.233302695254694E+005 -0.325974165253294E+000   0.334216259054727E+000  0.119704323744655E+002 -0.334216263201417E+000 
      1.16000000 -0.233302809572020E+005 -0.337405897858390E+000   0.345994294400390E+000  0.123922795222018E+002 -0.345994298683922E+000 
      1.18000000 -0.233302925814752E+005 -0.349030171052493E+000   0.357973418693451E+000  0.128213289576212E+002 -0.357973423116196E+000 
      1.20000000 -0.233303043980326E+005 -0.360846728474028E+000   0.370153431494910E+000  0.132575735017147E+002 -0.370153436058977E+000 
      1.22000000 -0.233303164066136E+005 -0.372855309492284E+000   0.382534129073923E+000  0.137010058575715E+002 -0.382534133781624E+000 
      1.24000000 -0.233303286069524E+005 -0.385055648322651E+000   0.395115304509489E+000  0.141516186140206E+002 -0.395115309362921E+000 
      1.26000000 -0.233303409987787E+005 -0.397447474614402E+000   0.407896747875144E+000  0.146094042522459E+002 -0.407896752876536E+000 
      1.28000000 -0.233303535818162E+005 -0.410030512086422E+000   0.420878246046647E+000  0.150743551388985E+002 -0.420878251198142E+000 
      1.30000000 -0.233303663557841E+005 -0.422804479959538E+000   0.434059582476713E+000  0.155464635180284E+002 -0.434059587780489E+000 
      1.32000000 -0.233303793203950E+005 -0.435769090877634E+000   0.447440537055430E+000  0.160257215060848E+002 -0.447440542513643E+000 
      1.34000000 -0.233303924753560E+005 -0.448924051860471E+000   0.461020885881386E+000  0.165121210837192E+002 -0.461020891496157E+000 
      1.36000000 -0.233304058203671E+005 -0.462269062995105E+000   0.474800401114410E+000  0.170056540905106E+002 -0.474800406887920E+000 
      1.38000000 -0.233304193551241E+005 -0.475803820022119E+000   0.488778851192636E+000  0.175063122327401E+002 -0.488778857127095E+000 
      1.40000000 -0.233304330793176E+005 -0.489528013531289E+000   0.502956000814001E+000  0.180140870827286E+002 -0.502956006911682E+000 
      1.42000000 -0.233304469926336E+005 -0.503441329478218E+000   0.517331611133923E+000  0.185289700859164E+002 -0.517331617396967E+000 
      1.44000000 -0.233304610947541E+005 -0.517543450016499E+000   0.531905440048436E+000  0.190509525710044E+002 -0.531905446478999E+000 
      1.46000000 -0.233304753853590E+005 -0.531834054889831E+000   0.546677242251176E+000  0.195800257519951E+002 -0.546677248851272E+000 
      1.48000000 -0.233304898641246E+005 -0.546312820491571E+000   0.561646769275779E+000  0.201161807297109E+002 -0.561646776047581E+000 
      1.50000000 -0.233305045307252E+005 -0.560979421074319E+000   0.576813769455059E+000  0.206594084903323E+002 -0.576813776400780E+000 
      1.52000000 -0.233305193848325E+005 -0.575833528428190E+000   0.592177987692121E+000  0.212096998972000E+002 -0.592177994813932E+000 
      1.54000000 -0.233305344261175E+005 -0.590874813344072E+000   0.607739165496750E+000  0.217670456921179E+002 -0.607739172796773E+000 
      1.56000000 -0.233305496542493E+005 -0.606102945220747E+000   0.623497040746642E+000  0.223314364868016E+002 -0.623497048226887E+000 
      1.58000000 -0.233305650688967E+005 -0.621517592562948E+000   0.639451347545533E+000  0.229028627577968E+002 -0.639451355208196E+000 
      1.60000000 -0.233305806697278E+005 -0.637118423665051E+000   0.655601816303450E+000  0.234813148493538E+002 -0.655601824150667E+000 
      1.62000000 -0.233305964564135E+005 -0.652905109398377E+000   0.671948173987382E+000  0.240667829824056E+002 -0.671948182021319E+000 
      1.64000000 -0.233306124286239E+005 -0.668877319820637E+000   0.688490144383009E+000  0.246592572639421E+002 -0.688490152605712E+000 
      1.66000000 -0.233306285860321E+005 -0.685034728042904E+000   0.705227448172877E+000  0.252587276898099E+002 -0.705227456586454E+000 
      1.68000000 -0.233306449283156E+005 -0.701377011445383E+000   0.722159803077691E+000  0.258651841497733E+002 -0.722159811684286E+000 
      1.70000000 -0.233306614551557E+005 -0.717903851603170E+000   0.739286923880770E+000  0.264786164283896E+002 -0.739286932682362E+000 
      1.72000000 -0.233306781662363E+005 -0.734614932222837E+000   0.756608522181425E+000  0.270990141961765E+002 -0.756608531180059E+000 
      1.74000000 -0.233306950612450E+005 -0.751509940865549E+000   0.774124306127617E+000  0.277263670000367E+002 -0.774124315325317E+000 
      1.76000000 -0.233307121398747E+005 -0.768588570555729E+000   0.791833980267328E+000  0.283606642579344E+002 -0.791833989666157E+000 
      1.78000000 -0.233307294018241E+005 -0.785850520022354E+000   0.809737245558266E+000  0.290018952592430E+002 -0.809737255160323E+000 
      1.80000000 -0.233307468467983E+005 -0.803295494206300E+000   0.827833799448311E+000  0.296500491676266E+002 -0.827833809255632E+000 
      1.82000000 -0.233307644745078E+005 -0.820923203700412E+000   0.846123336090878E+000  0.303051150287530E+002 -0.846123346105523E+000 
      1.84000000 -0.233307822846723E+005 -0.838733368152427E+000   0.864605546444888E+000  0.309670817738751E+002 -0.864605556668937E+000 
      1.86000000 -0.233308002770138E+005 -0.856725709663293E+000   0.883280118505853E+000  0.316359382281066E+002 -0.883280128941342E+000 
      1.88000000 -0.233308184512617E+005 -0.874899957576018E+000   0.902146737257276E+000  0.323116731086821E+002 -0.902146747906096E+000 
      1.90000000 -0.233308368071542E+005 -0.893255850096705E+000   0.921205084695063E+000  0.329942750258310E+002 -0.921205095559270E+000 
      1.92000000 -0.233308553444378E+005 -0.911793133719150E+000   0.940454839490286E+000  0.336837324706991E+002 -0.940454850571874E+000 
      1.94000000 -0.233308740628626E+005 -0.930511558488574E+000   0.959895676967783E+000  0.343800338145821E+002 -0.959895688268812E+000 
      1.96000000 -0.233308929621856E+005 -0.949410881525206E+000   0.979527269055279E+000  0.350831673071032E+002 -0.979527280577743E+000 
      1.98000000 -0.233309120421729E+005 -0.968490868759782E+000   0.999349284194818E+000  0.357931210730408E+002 -0.999349295940773E+000 
      2.00000000 -0.233309313025931E+005 -0.987751288950566E+000   0.101936138777550E+001  0.365098831278278E+002 -0.101936139974690E+001 
      2.02000000 -0.233309507432224E+005 -0.100719191825566E+001   0.103956324190294E+001  0.372334413692950E+002 -0.103956325410176E+001 
      2.04000000 -0.233309703638431E+005 -0.102681253900793E+001   0.105995450584531E+001  0.379637835936452E+002 -0.105995451827352E+001 
      2.06000000 -0.233309901642435E+005 -0.104661293941805E+001   0.108053483584742E+001  0.387008974887956E+002 -0.108053484850690E+001 
      2.08000000 -0.233310101442165E+005 -0.106659291241751E+001   0.110130388516213E+001  0.394447706355025E+002 -0.110130389805506E+001 
      2.10000000 -0.233310303035595E+005 -0.108675225534919E+001   0.112226130393500E+001  0.401953905032299E+002 -0.112226131706315E+001 
      2.12000000 -0.233310506420725E+005 -0.110709076834952E+001   0.114340673921544E+001  0.409527444505486E+002 -0.114340675258075E+001 
      2.14000000 -0.233310711595595E+005 -0.112760825538474E+001   0.116473983477121E+001  0.417168197184920E+002 -0.116473984837563E+001 
      2.16000000 -0.233310918558266E+005 -0.114830452249381E+001   0.118626023127796E+001  0.424876034373463E+002 -0.118626024512346E+001 
      2.18000000 -0.233311127306824E+005 -0.116917937826789E+001   0.120796756611565E+001  0.432650826193569E+002 -0.120796758020416E+001 
      2.20000000 -0.233311337839378E+005 -0.119023263373276E+001   0.122986147360429E+001  0.440492441671726E+002 -0.122986148793760E+001 
      2.22000000 -0.233311550154043E+005 -0.121146410015553E+001   0.125194158500636E+001  0.448400748739331E+002 -0.125194159958650E+001 
      2.24000000 -0.233311764248932E+005 -0.123287358914358E+001   0.127420752870767E+001  0.456375614297462E+002 -0.127420754353646E+001 
      2.26000000 -0.233311980122165E+005 -0.125446091243734E+001   0.129665893020831E+001  0.464416904213622E+002 -0.129665894528765E+001 
      2.28000000 -0.233312197771872E+005 -0.127622588311053E+001   0.131929541218702E+001  0.472524483344819E+002 -0.131929542751886E+001 
      2.30000000 -0.233312417196169E+005 -0.129816831281078E+001   0.134211659451132E+001  0.480698215541184E+002 -0.134211661009758E+001 
      2.32000000 -0.233312638393143E+005 -0.132028801017563E+001   0.136512209388497E+001  0.488937963519691E+002 -0.136512210972749E+001 
      2.34000000 -0.233312861360886E+005 -0.134258478448920E+001   0.138831152406612E+001  0.497243588942315E+002 -0.138831154016688E+001 
      2.36000000 -0.233313086097448E+005 -0.136505844072315E+001   0.141168449565299E+001  0.505614952339243E+002 -0.141168451201377E+001 
      2.38000000 -0.233313312600880E+005 -0.138770878390175E+001   0.143524061607430E+001  0.514051913105473E+002 -0.143524063269688E+001 
      2.40000000 -0.233313540869174E+005 -0.141053561331068E+001   0.145897948992008E+001  0.522554329619276E+002 -0.145897950680631E+001 
      2.42000000 -0.233313770900322E+005 -0.143353872811804E+001   0.148290071887380E+001  0.531122059217905E+002 -0.148290073602557E+001 
      2.44000000 -0.233314002692263E+005 -0.145671792224216E+001   0.150700390188370E+001  0.539754958258947E+002 -0.150700391930276E+001 
      2.46000000 -0.233314236242927E+005 -0.148007298862379E+001   0.153128863522894E+001  0.548452882144017E+002 -0.153128865291716E+001 
      2.48000000 -0.233314471550201E+005 -0.150360371598714E+001   0.155575451241125E+001  0.557215685279963E+002 -0.155575453037030E+001 
      2.50000000 -0.233314708611948E+005 -0.152730989072386E+001   0.158040112403993E+001  0.566043221037656E+002 -0.158040114227171E+001 
      2.52000000 -0.233314947425985E+005 -0.155119129437486E+001   0.160522805778852E+001  0.574935341736490E+002 -0.160522807629482E+001 
      2.54000000 -0.233315187990131E+005 -0.157524770901007E+001   0.163023489840990E+001  0.583891898649787E+002 -0.163023491719255E+001 
      2.56000000 -0.233315430302133E+005 -0.159947890921295E+001   0.165542122778958E+001  0.592912742023870E+002 -0.165542124685022E+001 
      2.58000000 -0.233315674359723E+005 -0.162388466816869E+001   0.168078662515649E+001  0.601997721153578E+002 -0.168078664449701E+001 
      2.60000000 -0.233315920160604E+005 -0.164846475632153E+001   0.170633066692515E+001  0.611146684325720E+002 -0.170633068654731E+001 
      2.62000000 -0.233316167702463E+005 -0.167321894218846E+001   0.173205292697186E+001  0.620359478918012E+002 -0.173205294687735E+001 
      2.64000000 -0.233316416982959E+005 -0.169814699178990E+001   0.175795297647732E+001  0.629635951342700E+002 -0.175795299666798E+001 
      2.66000000 -0.233316667999745E+005 -0.172324867042243E+001   0.178403038379203E+001  0.638975946998359E+002 -0.178403040426955E+001 
      2.68000000 -0.233316920750435E+005 -0.174852373937950E+001   0.181028471464129E+001  0.648379310343302E+002 -0.181028473540732E+001 
      2.70000000 -0.233317175232654E+005 -0.177397196131574E+001   0.183671553194707E+001  0.657845884831794E+002 -0.183671555300343E+001 
      2.72000000 -0.233317431444005E+005 -0.179959309638620E+001   0.186332239584514E+001  0.667375512920182E+002 -0.186332241719350E+001 
      2.74000000 -0.233317689382083E+005 -0.182538690420761E+001   0.189010486390363E+001  0.676968036145180E+002 -0.189010488554558E+001 
      2.76000000 -0.233317949044472E+005 -0.185135314312835E+001   0.191706249083824E+001  0.686623295021860E+002 -0.191706251277556E+001 
      2.78000000 -0.233318210428763E+005 -0.187749157223926E+001   0.194419482867345E+001  0.696341129101391E+002 -0.194419485090779E+001 
      2.80000000 -0.233318473532502E+005 -0.190380194607744E+001   0.197150142663206E+001  0.706121376931484E+002 -0.197150144916515E+001 
