# Real time calculation: 
# Eall: Total energy
# Eall0: Initial total energy
# 1:Time[fs] 2:Eall[eV] 3:Eall-Eall0[eV] 
      0.00000000 -0.691480906532244E+004  0.000000000000000E+000 
      0.02000000 -0.691480906532770E+004 -0.526526689044431E-008 
      0.04000000 -0.691480906532658E+004 -0.414307208168481E-008 
      0.06000000 -0.691480906531872E+004  0.371615855002716E-008 
      0.08000000 -0.691480906528986E+004  0.325799989757428E-007 
      0.10000000 -0.691480906521143E+004  0.111009892536254E-006 
      0.12000000 -0.691480906503439E+004  0.288045984392573E-006 
      0.14000000 -0.691480906468266E+004  0.639778651015966E-006 
      0.16000000 -0.691480906404633E+004  0.127610641765103E-005 
      0.18000000 -0.691480906297510E+004  0.234733300981035E-005 
      0.20000000 -0.691480906127184E+004  0.405059735164802E-005 
      0.22000000 -0.691480905868653E+004  0.663590526638251E-005 
      0.24000000 -0.691480905491090E+004  0.104115385944858E-004 
      0.26000000 -0.691480904957383E+004  0.157486050710505E-004 
      0.28000000 -0.691480904223774E+004  0.230846941596023E-004 
      0.30000000 -0.691480903239602E+004  0.329264184250428E-004 
      0.32000000 -0.691480901947163E+004  0.458508087365695E-004 
      0.34000000 -0.691480900281686E+004  0.625055818620259E-004 
      0.36000000 -0.691480898171422E+004  0.836082201289483E-004 
      0.38000000 -0.691480895537849E+004  0.109943948225654E-003 
      0.40000000 -0.691480892295991E+004  0.142362527482786E-003 
      0.42000000 -0.691480888354816E+004  0.181774280627741E-003 
      0.44000000 -0.691480883617709E+004  0.229145343918425E-003 
      0.46000000 -0.691480877983043E+004  0.285492006671983E-003 
      0.48000000 -0.691480871344798E+004  0.351874456053489E-003 
      0.50000000 -0.691480863593241E+004  0.429390023025453E-003 
      0.52000000 -0.691480854615636E+004  0.519166081043390E-003 
      0.54000000 -0.691480844296987E+004  0.622352565788281E-003 
      0.56000000 -0.691480832520828E+004  0.740114160019409E-003 
      0.58000000 -0.691480819170029E+004  0.873622144320944E-003 
      0.60000000 -0.691480804127626E+004  0.102404617978986E-002 
      0.62000000 -0.691480787277624E+004  0.119254619667882E-002 
      0.64000000 -0.691480768505763E+004  0.138026480275990E-002 
      0.66000000 -0.691480747700243E+004  0.158832000800651E-002 
      0.68000000 -0.691480724752388E+004  0.181779856025658E-002 
      0.70000000 -0.691480699557235E+004  0.206975008829921E-002 
      0.72000000 -0.691480672014040E+004  0.234518203382328E-002 
      0.74000000 -0.691480642026699E+004  0.264505544570045E-002 
      0.76000000 -0.691480609504063E+004  0.297028180597584E-002 
      0.78000000 -0.691480574360175E+004  0.332172068339041E-002 
      0.80000000 -0.691480536514462E+004  0.370017781381685E-002 
      0.82000000 -0.691480495891854E+004  0.410640389995196E-002 
      0.84000000 -0.691480452422792E+004  0.454109452005618E-002 
      0.86000000 -0.691480406043142E+004  0.500489101580995E-002 
      0.88000000 -0.691480356694043E+004  0.549838200352578E-002 
      0.90000000 -0.691480304321667E+004  0.602210576548272E-002 
      0.92000000 -0.691480248876872E+004  0.657655371627861E-002 
      0.94000000 -0.691480190314796E+004  0.716217447552334E-002 
      0.96000000 -0.691480128594372E+004  0.777937871237933E-002 
      0.98000000 -0.691480063677783E+004  0.842854460417694E-002 
      1.00000000 -0.691479995529873E+004  0.911002370879575E-002 
      1.02000000 -0.691479924117548E+004  0.982414696156219E-002 
      1.04000000 -0.691479849409153E+004  0.105712309080325E-001 
      1.06000000 -0.691479771373863E+004  0.113515838060719E-001 
      1.08000000 -0.691479689981087E+004  0.121655115632010E-001 
      1.10000000 -0.691479605199893E+004  0.130133235092093E-001 
      1.12000000 -0.691479516998457E+004  0.138953378679182E-001 
      1.14000000 -0.691479425343578E+004  0.148118866589525E-001 
      1.16000000 -0.691479330200218E+004  0.157633202545788E-001 
      1.18000000 -0.691479231531046E+004  0.167500119813997E-001 
      1.20000000 -0.691479129296029E+004  0.177723621497374E-001 
      1.22000000 -0.691479023452126E+004  0.188308011812391E-001 
      1.24000000 -0.691478913953032E+004  0.199257921193142E-001 
      1.26000000 -0.691478800748994E+004  0.210578324930141E-001 
      1.28000000 -0.691478683786705E+004  0.222274553889565E-001 
      1.30000000 -0.691478563009266E+004  0.234352297776976E-001 
      1.32000000 -0.691478438356215E+004  0.246817602840337E-001 
      1.34000000 -0.691478309763622E+004  0.259676862140722E-001 
      1.36000000 -0.691478177164262E+004  0.272936798181879E-001 
      1.38000000 -0.691478040487871E+004  0.286604437303155E-001 
      1.40000000 -0.691477899661467E+004  0.300687077684179E-001 
      1.42000000 -0.691477754609728E+004  0.315192251580035E-001 
      1.44000000 -0.691477605255454E+004  0.330127678948549E-001 
      1.46000000 -0.691477451520125E+004  0.345501211820053E-001 
      1.48000000 -0.691477293324508E+004  0.361320773531816E-001 
      1.50000000 -0.691477130589308E+004  0.377594293608255E-001 
      1.52000000 -0.691476963235861E+004  0.394329638271486E-001 
      1.54000000 -0.691476791186815E+004  0.411534542893079E-001 
      1.56000000 -0.691476614366814E+004  0.429216542984105E-001 
      1.58000000 -0.691476432703235E+004  0.447382900869645E-001 
      1.60000000 -0.691476246126968E+004  0.466040527552788E-001 
      1.62000000 -0.691476054573218E+004  0.485195902567797E-001 
      1.64000000 -0.691475857982279E+004  0.504854996431889E-001 
      1.66000000 -0.691475656300278E+004  0.525023196615954E-001 
      1.68000000 -0.691475449479906E+004  0.545705233747288E-001 
      1.70000000 -0.691475237481166E+004  0.566905107758199E-001 
      1.72000000 -0.691475020272063E+004  0.588626018033044E-001 
      1.74000000 -0.691474797829255E+004  0.610870298822101E-001 
      1.76000000 -0.691474570138632E+004  0.633639361120996E-001 
      1.78000000 -0.691474337195860E+004  0.656933638355237E-001 
      1.80000000 -0.691474099006826E+004  0.680752541824986E-001 
      1.82000000 -0.691473855587948E+004  0.705094429529539E-001 
      1.84000000 -0.691473606966417E+004  0.729956582663884E-001 
      1.86000000 -0.691473353180363E+004  0.755335188070384E-001 
      1.88000000 -0.691473094278924E+004  0.781225331974290E-001 
      1.90000000 -0.691472830322237E+004  0.807621000617923E-001 
      1.92000000 -0.691472561381370E+004  0.834515087329492E-001 
      1.94000000 -0.691472287538138E+004  0.861899410550916E-001 
      1.96000000 -0.691472008884821E+004  0.889764742244585E-001 
      1.98000000 -0.691471725523787E+004  0.918100845712330E-001 
      2.00000000 -0.691471437567031E+004  0.946896521287546E-001 
      2.02000000 -0.691471145135656E+004  0.976139658763579E-001 
      2.04000000 -0.691470848359238E+004  0.100581730059549E+000 
      2.06000000 -0.691470547375150E+004  0.103591570936320E+000 
      2.08000000 -0.691470242327868E+004  0.106642043754716E+000 
      2.10000000 -0.691469933368211E+004  0.109731640327449E+000 
      2.12000000 -0.691469620652580E+004  0.112858796635142E+000 
      2.14000000 -0.691469304342173E+004  0.116021900703342E+000 
      2.16000000 -0.691468984602178E+004  0.119219300661292E+000 
      2.18000000 -0.691468661600978E+004  0.122449312659934E+000 
      2.20000000 -0.691468335509406E+004  0.125710228376930E+000 
      2.22000000 -0.691468006500008E+004  0.129000322359261E+000 
      2.24000000 -0.691467674746348E+004  0.132317858962122E+000 
      2.26000000 -0.691467340422357E+004  0.135661098871726E+000 
      2.28000000 -0.691467003701757E+004  0.139028304862452E+000 
      2.30000000 -0.691466664757526E+004  0.142417747173475E+000 
      2.32000000 -0.691466323761403E+004  0.145827708409772E+000 
      2.34000000 -0.691465980883487E+004  0.149256487566083E+000 
      2.36000000 -0.691465636291918E+004  0.152702403260480E+000 
      2.38000000 -0.691465290152597E+004  0.156163796470629E+000 
      2.40000000 -0.691464942629000E+004  0.159639032440209E+000 
      2.42000000 -0.691464593882085E+004  0.163126501589969E+000 
      2.44000000 -0.691464244070299E+004  0.166624619446579E+000 
      2.46000000 -0.691463893349660E+004  0.170131825842163E+000 
      2.48000000 -0.691463541873905E+004  0.173646583387620E+000 
      2.50000000 -0.691463189794706E+004  0.177167375376729E+000 
      2.52000000 -0.691462837261994E+004  0.180692702494580E+000 
      2.54000000 -0.691462484424335E+004  0.184221079082857E+000 
      2.56000000 -0.691462131429356E+004  0.187751028878433E+000 
      2.58000000 -0.691461778424227E+004  0.191281080164968E+000 
      2.60000000 -0.691461425556183E+004  0.194809760612044E+000 
      2.62000000 -0.691461072973050E+004  0.198335591941845E+000 
      2.64000000 -0.691460720823815E+004  0.201857084289563E+000 
      2.66000000 -0.691460369259168E+004  0.205372730755613E+000 
      2.68000000 -0.691460018432009E+004  0.208881002347635E+000 
      2.70000000 -0.691459668497931E+004  0.212380343122805E+000 
      2.72000000 -0.691459319615719E+004  0.215869165248941E+000 
      2.74000000 -0.691458971947809E+004  0.219345844350991E+000 
      2.76000000 -0.691458625660715E+004  0.222808715285206E+000 
      2.78000000 -0.691458280925386E+004  0.226256068574572E+000 
      2.80000000 -0.691457937917523E+004  0.229686147210817E+000 
      2.82000000 -0.691457596817835E+004  0.233097144083656E+000 
      2.84000000 -0.691457257812214E+004  0.236487200293245E+000 
      2.86000000 -0.691456921091822E+004  0.239854404219008E+000 
      2.88000000 -0.691456586853117E+004  0.243196791267519E+000 
      2.90000000 -0.691456255297802E+004  0.246512344420831E+000 
      2.92000000 -0.691455926632667E+004  0.249798995768576E+000 
      2.94000000 -0.691455601069368E+004  0.253054628754669E+000 
      2.96000000 -0.691455278824145E+004  0.256277080983961E+000 
      2.98000000 -0.691454960117401E+004  0.259464148431043E+000 
      3.00000000 -0.691454645173258E+004  0.262613589856333E+000 
      3.02000000 -0.691454334219042E+004  0.265723132020294E+000 
      3.04000000 -0.691454027484650E+004  0.268790475940966E+000 
      3.06000000 -0.691453725201847E+004  0.271813303962792E+000 
      3.08000000 -0.691453427603552E+004  0.274789286919014E+000 
      3.10000000 -0.691453134923038E+004  0.277716092055102E+000 
      3.12000000 -0.691452847393099E+004  0.280591391448690E+000 
      3.14000000 -0.691452565245196E+004  0.283412870476698E+000 
      3.16000000 -0.691452288708593E+004  0.286178236503638E+000 
      3.18000000 -0.691452018009497E+004  0.288885227471705E+000 
      3.20000000 -0.691451753370176E+004  0.291531620673386E+000 
      3.22000000 -0.691451495008136E+004  0.294115241080909E+000 
      3.24000000 -0.691451243135274E+004  0.296633969694267E+000 
      3.26000000 -0.691450997957120E+004  0.299085751240350E+000 
      3.28000000 -0.691450759672065E+004  0.301468601790103E+000 
      3.30000000 -0.691450528470690E+004  0.303780615533464E+000 
      3.32000000 -0.691450304535137E+004  0.306019971068597E+000 
      3.34000000 -0.691450088038509E+004  0.308184937344659E+000 
      3.36000000 -0.691449879144377E+004  0.310273878671842E+000 
      3.38000000 -0.691449678006377E+004  0.312285258662592E+000 
      3.40000000 -0.691449484767950E+004  0.314217642935392E+000 
      3.42000000 -0.691449299562149E+004  0.316069700950803E+000 
      3.44000000 -0.691449122511543E+004  0.317840207010686E+000 
      3.46000000 -0.691448953728227E+004  0.319528040162304E+000 
      3.48000000 -0.691448793313952E+004  0.321132182914485E+000 
      3.50000000 -0.691448641360314E+004  0.322651719296404E+000 
      3.52000000 -0.691448497949074E+004  0.324085831699817E+000 
      3.54000000 -0.691448363152504E+004  0.325433797394143E+000 
      3.56000000 -0.691448237033824E+004  0.326694984193142E+000 
      3.58000000 -0.691448119647706E+004  0.327868845379899E+000 
      3.60000000 -0.691448011040859E+004  0.328954913844497E+000 
      3.62000000 -0.691447911252644E+004  0.329952795999730E+000 
      3.64000000 -0.691447820315694E+004  0.330862165497271E+000 
      3.66000000 -0.691447738256548E+004  0.331682756958543E+000 
      3.68000000 -0.691447665096286E+004  0.332414359581069E+000 
      3.70000000 -0.691447600851137E+004  0.333056811071195E+000 
      3.72000000 -0.691447545533047E+004  0.333609991968924E+000 
      3.74000000 -0.691447499150213E+004  0.334073820302219E+000 
      3.76000000 -0.691447461707573E+004  0.334448246711521E+000 
      3.78000000 -0.691447433207231E+004  0.334733250131124E+000 
      3.80000000 -0.691447413648812E+004  0.334928834315856E+000 
      3.82000000 -0.691447403029768E+004  0.335035024762198E+000 
      3.84000000 -0.691447401345581E+004  0.335051866623218E+000 
      3.86000000 -0.691447408589884E+004  0.334979423592559E+000 
      3.88000000 -0.691447424754511E+004  0.334817777324393E+000 
      3.90000000 -0.691447449829475E+004  0.334567027686326E+000 
      3.92000000 -0.691447483802818E+004  0.334227294261322E+000 
      3.94000000 -0.691447526660381E+004  0.333798718631543E+000 
      3.96000000 -0.691447578385502E+004  0.333281467414688E+000 
      3.98000000 -0.691447638958651E+004  0.332675735926018E+000 
      4.00000000 -0.691447708356986E+004  0.331981752582062E+000 
      4.02000000 -0.691447786553922E+004  0.331199783214604E+000 
      4.04000000 -0.691447873518657E+004  0.330330135871148E+000 
      4.06000000 -0.691447969215604E+004  0.329373166393403E+000 
      4.08000000 -0.691448073603820E+004  0.328329284238622E+000 
      4.10000000 -0.691448186636382E+004  0.327198958619580E+000 
      4.12000000 -0.691448308259718E+004  0.325982725260941E+000 
      4.14000000 -0.691448438412894E+004  0.324681193499792E+000 
      4.16000000 -0.691448577026959E+004  0.323295052845571E+000 
      4.18000000 -0.691448724024292E+004  0.321825079520657E+000 
      4.20000000 -0.691448879318003E+004  0.320272142404685E+000 
      4.22000000 -0.691449042811465E+004  0.318637207783176E+000 
      4.24000000 -0.691449214397907E+004  0.316921343370740E+000 
      4.26000000 -0.691449393960103E+004  0.315125721403103E+000 
      4.28000000 -0.691449581370153E+004  0.313251620910887E+000 
      4.30000000 -0.691449776489348E+004  0.311300428956262E+000 
      4.32000000 -0.691449979168105E+004  0.309273641383920E+000 
      4.34000000 -0.691450189245960E+004  0.307172862836537E+000 
      4.36000000 -0.691450406551633E+004  0.304999806106668E+000 
      4.38000000 -0.691450630903198E+004  0.302756290454621E+000 
      4.40000000 -0.691450862108337E+004  0.300444239064757E+000 
      4.42000000 -0.691451099964682E+004  0.298065675613171E+000 
      4.44000000 -0.691451344260267E+004  0.295622719766538E+000 
      4.46000000 -0.691451594774059E+004  0.293117581849559E+000 
      4.48000000 -0.691451851276544E+004  0.290552556999652E+000 
      4.50000000 -0.691452113530402E+004  0.287930018417538E+000 
      4.52000000 -0.691452381291194E+004  0.285252410501051E+000 
      4.54000000 -0.691452654308077E+004  0.282522241669586E+000 
      4.56000000 -0.691452932324538E+004  0.279742077057847E+000 
      4.58000000 -0.691453215079123E+004  0.276914531208818E+000 
      4.60000000 -0.691453502306187E+004  0.274042260564881E+000 
      4.62000000 -0.691453793736605E+004  0.271127956383526E+000 
      4.64000000 -0.691454089098481E+004  0.268174337626766E+000 
      4.66000000 -0.691454388117841E+004  0.265184144030751E+000 
      4.68000000 -0.691454690519275E+004  0.262160129685053E+000 
      4.70000000 -0.691454996026544E+004  0.259105057000190E+000 
      4.72000000 -0.691455304363116E+004  0.256021691272215E+000 
      4.74000000 -0.691455615252660E+004  0.252912795838944E+000 
      4.76000000 -0.691455928419450E+004  0.249781127935345E+000 
      4.78000000 -0.691456243588716E+004  0.246629435275126E+000 
      4.80000000 -0.691456560486896E+004  0.243460453477663E+000 
      4.82000000 -0.691456878841817E+004  0.240276904265985E+000 
      4.84000000 -0.691457198382782E+004  0.237081494616816E+000 
      4.86000000 -0.691457518840588E+004  0.233876916555627E+000 
      4.88000000 -0.691457839947493E+004  0.230665847510074E+000 
      4.90000000 -0.691458161437088E+004  0.227450951555938E+000 
      4.92000000 -0.691458483044148E+004  0.224234880957728E+000 
      4.94000000 -0.691458804504482E+004  0.221020277621883E+000 
      4.96000000 -0.691459125554774E+004  0.217809774693835E+000 
      4.98000000 -0.691459445932436E+004  0.214605998080049E+000 
      5.00000000 -0.691459765375517E+004  0.211411567266268E+000 
      5.02000000 -0.691460083622667E+004  0.208229095763772E+000 
      5.04000000 -0.691460400413132E+004  0.205061191120966E+000 
      5.06000000 -0.691460715486816E+004  0.201910454275288E+000 
      5.08000000 -0.691461028584394E+004  0.198779478497518E+000 
      5.10000000 -0.691461339447454E+004  0.195670847893715E+000 
      5.12000000 -0.691461647818664E+004  0.192587135796561E+000 
      5.14000000 -0.691461953441956E+004  0.189530902875955E+000 
      5.16000000 -0.691462256062732E+004  0.186504695119684E+000 
      5.18000000 -0.691462555428054E+004  0.183511041893747E+000 
      5.20000000 -0.691462851286847E+004  0.180552453964020E+000 
      5.22000000 -0.691463143390099E+004  0.177631421447525E+000 
      5.24000000 -0.691463431491063E+004  0.174750411808576E+000 
      5.26000000 -0.691463715345471E+004  0.171911867727298E+000 
      5.28000000 -0.691463994711773E+004  0.169118204710615E+000 
      5.30000000 -0.691464269351394E+004  0.166371808493647E+000 
      5.32000000 -0.691464539029037E+004  0.163675032069101E+000 
      5.34000000 -0.691464803513029E+004  0.161030192150542E+000 
      5.36000000 -0.691465062575715E+004  0.158439565283767E+000 
      5.38000000 -0.691465315993881E+004  0.155905383625620E+000 
      5.40000000 -0.691465563549222E+004  0.153429830220872E+000 
      5.42000000 -0.691465805028849E+004  0.151015033948868E+000 
      5.44000000 -0.691466040225796E+004  0.148663064477903E+000 
      5.46000000 -0.691466268939517E+004  0.146375927262907E+000 
      5.48000000 -0.691466490976371E+004  0.144155558722562E+000 
      5.50000000 -0.691466706150060E+004  0.142003821834047E+000 
      5.52000000 -0.691466914281999E+004  0.139922502445498E+000 
      5.54000000 -0.691467115201601E+004  0.137913306425274E+000 
      5.56000000 -0.691467308746476E+004  0.135977857680523E+000 
      5.58000000 -0.691467494762518E+004  0.134117697260821E+000 
      5.60000000 -0.691467673103902E+004  0.132334283414623E+000 
      5.62000000 -0.691467843632980E+004  0.130628992637994E+000 
      5.64000000 -0.691468006220081E+004  0.129003121622007E+000 
      5.66000000 -0.691468160743259E+004  0.127457889846712E+000 
      5.68000000 -0.691468307087976E+004  0.125994442678579E+000 
      5.70000000 -0.691468445146763E+004  0.124613854803590E+000 
      5.72000000 -0.691468574818877E+004  0.123317133667302E+000 
      5.74000000 -0.691468696009967E+004  0.122105222767955E+000 
      5.76000000 -0.691468808631791E+004  0.120979004531177E+000 
      5.78000000 -0.691468912601979E+004  0.119939302649507E+000 
      5.80000000 -0.691469007843870E+004  0.118986883738996E+000 
      5.82000000 -0.691469094286426E+004  0.118122458180669E+000 
      5.84000000 -0.691469171864224E+004  0.117346680201724E+000 
      5.86000000 -0.691469240517527E+004  0.116660147167880E+000 
      5.88000000 -0.691469300192422E+004  0.116063398219112E+000 
      5.90000000 -0.691469350841008E+004  0.115556912356269E+000 
      5.92000000 -0.691469392421623E+004  0.115141106203647E+000 
      5.94000000 -0.691469424899087E+004  0.114816331566612E+000 
      5.96000000 -0.691469448244935E+004  0.114582873082800E+000 
      5.98000000 -0.691469462437633E+004  0.114440946111528E+000 
      6.00000000 -0.691469467462739E+004  0.114390695043149E+000 
