# Real time calculation: 
# Eall: Total energy
# Eall0: Initial total energy
# 1:Time[fs] 2:Eall[eV] 3:Eall-Eall0[eV] 
      0.00000000 -0.233326878019313E+005  0.000000000000000E+000 
      0.02000000 -0.233326878029210E+005 -0.989795929571937E-006 
      0.04000000 -0.233326878029255E+005 -0.994278521654343E-006 
      0.06000000 -0.233326878029167E+005 -0.985412331931656E-006 
      0.08000000 -0.233326878028687E+005 -0.937446431146498E-006 
      0.10000000 -0.233326878027295E+005 -0.798272619826105E-006 
      0.12000000 -0.233326878024094E+005 -0.478136968303932E-006 
      0.14000000 -0.233326878017687E+005  0.162573622577338E-006 
      0.16000000 -0.233326878006053E+005  0.132595630641285E-005 
      0.18000000 -0.233326877986420E+005  0.328921098903003E-005 
      0.20000000 -0.233326877955142E+005  0.641701463375400E-005 
      0.22000000 -0.233326877907579E+005  0.111733108807492E-004 
      0.24000000 -0.233326877837991E+005  0.181321066283636E-004 
      0.26000000 -0.233326877739442E+005  0.279870899618961E-004 
      0.28000000 -0.233326877603718E+005  0.415594878374402E-004 
      0.30000000 -0.233326877421270E+005  0.598042346730588E-004 
      0.32000000 -0.233326877181171E+005  0.838141888933034E-004 
      0.34000000 -0.233326876871088E+005  0.114822502608672E-003 
      0.36000000 -0.233326876477283E+005  0.154202940253971E-003 
      0.38000000 -0.233326875984630E+005  0.203468273022206E-003 
      0.40000000 -0.233326875376643E+005  0.264266931615006E-003 
      0.42000000 -0.233326874635532E+005  0.338378013210452E-003 
      0.44000000 -0.233326873742265E+005  0.427704735455590E-003 
      0.46000000 -0.233326872676644E+005  0.534266866485184E-003 
      0.48000000 -0.233326871417396E+005  0.660191663836687E-003 
      0.50000000 -0.233326869942270E+005  0.807704259615049E-003 
      0.52000000 -0.233326868228143E+005  0.979116965999390E-003 
      0.54000000 -0.233326866251132E+005  0.117681800534448E-002 
      0.56000000 -0.233326863986713E+005  0.140325991545672E-002 
      0.58000000 -0.233326861409839E+005  0.166094736090341E-002 
      0.60000000 -0.233326858495063E+005  0.195242499691292E-002 
      0.62000000 -0.233326855216658E+005  0.228026548795359E-002 
      0.64000000 -0.233326851548736E+005  0.264705761602634E-002 
      0.66000000 -0.233326847465360E+005  0.305539520875509E-002 
      0.68000000 -0.233326842940646E+005  0.350786666453732E-002 
      0.70000000 -0.233326837948860E+005  0.400704527274376E-002 
      0.72000000 -0.233326832464505E+005  0.455548073113217E-002 
      0.74000000 -0.233326826462395E+005  0.515569175219994E-002 
      0.76000000 -0.233326819917717E+005  0.581015955120589E-002 
      0.78000000 -0.233326812806086E+005  0.652132264586856E-002 
      0.80000000 -0.233326805103587E+005  0.729157256866936E-002 
      0.82000000 -0.233326796786807E+005  0.812325056910030E-002 
      0.84000000 -0.233326787832858E+005  0.901864540794398E-002 
      0.86000000 -0.233326778219394E+005  0.997999185070202E-002 
      0.88000000 -0.233326767924611E+005  0.110094701540613E-001 
      0.90000000 -0.233326756927247E+005  0.121092065825213E-001 
      0.92000000 -0.233326745206565E+005  0.132812747169768E-001 
      0.94000000 -0.233326732742338E+005  0.145276974655425E-001 
      0.96000000 -0.233326719514814E+005  0.158504498323039E-001 
      0.98000000 -0.233326705504690E+005  0.172514622645668E-001 
      1.00000000 -0.233326690693068E+005  0.187326244053653E-001 
      1.02000000 -0.233326675061421E+005  0.202957891089241E-001 
      1.04000000 -0.233326658591545E+005  0.219427767685715E-001 
      1.06000000 -0.233326641265518E+005  0.236753794559446E-001 
      1.08000000 -0.233326623065663E+005  0.254953649086092E-001 
      1.10000000 -0.233326603974509E+005  0.274044803135039E-001 
      1.12000000 -0.233326583974756E+005  0.294044557005926E-001 
      1.14000000 -0.233326563049244E+005  0.314970068415463E-001 
      1.16000000 -0.233326541180935E+005  0.336838377400715E-001 
      1.18000000 -0.233326518352887E+005  0.359666425128050E-001 
      1.20000000 -0.233326494548243E+005  0.383471069701310E-001 
      1.22000000 -0.233326469750218E+005  0.408269094452597E-001 
      1.24000000 -0.233326443942103E+005  0.434077209396256E-001 
      1.26000000 -0.233326417107260E+005  0.460912052311625E-001 
      1.28000000 -0.233326389229133E+005  0.488790179740727E-001 
      1.30000000 -0.233326360291258E+005  0.517728054799580E-001 
      1.32000000 -0.233326330277284E+005  0.547742028462062E-001 
      1.34000000 -0.233326299170996E+005  0.578848316358085E-001 
      1.36000000 -0.233326266956344E+005  0.611062968147194E-001 
      1.38000000 -0.233326233617480E+005  0.644401832963315E-001 
      1.40000000 -0.233326199138794E+005  0.678880518239258E-001 
      1.42000000 -0.233326163504965E+005  0.714514347634077E-001 
      1.44000000 -0.233326126701003E+005  0.751318309927190E-001 
      1.46000000 -0.233326088712305E+005  0.789307007262846E-001 
      1.48000000 -0.233326049524712E+005  0.828494600455698E-001 
      1.50000000 -0.233326009124559E+005  0.868894753430169E-001 
      1.52000000 -0.233325967498737E+005  0.910520575587131E-001 
      1.54000000 -0.233325924634748E+005  0.953384564665542E-001 
      1.56000000 -0.233325880520763E+005  0.997498549387550E-001 
      1.58000000 -0.233325835145678E+005  0.104287363457844E+000 
      1.60000000 -0.233325788499172E+005  0.108952014090378E+000 
      1.62000000 -0.233325740571760E+005  0.113744755209300E+000 
      1.64000000 -0.233325691354853E+005  0.118666445962624E+000 
      1.66000000 -0.233325640840805E+005  0.123717850754496E+000 
      1.68000000 -0.233325589022971E+005  0.128899634202665E+000 
      1.70000000 -0.233325535895753E+005  0.134212355993865E+000 
      1.72000000 -0.233325481454652E+005  0.139656466039274E+000 
      1.74000000 -0.233325425696309E+005  0.145232300332215E+000 
      1.76000000 -0.233325368618546E+005  0.150940076648087E+000 
      1.78000000 -0.233325310220399E+005  0.156779891367259E+000 
      1.80000000 -0.233325250502149E+005  0.162751716381498E+000 
      1.82000000 -0.233325189465349E+005  0.168855396374711E+000 
      1.84000000 -0.233325127112843E+005  0.175090646960615E+000 
      1.86000000 -0.233325063448777E+005  0.181457053525736E+000 
      1.88000000 -0.233324998478616E+005  0.187954069617662E+000 
      1.90000000 -0.233324932209145E+005  0.194581016750140E+000 
      1.92000000 -0.233324864648468E+005  0.201337084461860E+000 
      1.94000000 -0.233324795806015E+005  0.208221329762703E+000 
      1.96000000 -0.233324725692530E+005  0.215232678219583E+000 
      1.98000000 -0.233324654320063E+005  0.222369924940212E+000 
      2.00000000 -0.233324581701960E+005  0.229631735241302E+000 
      2.02000000 -0.233324507852847E+005  0.237016646514002E+000 
      2.04000000 -0.233324432788607E+005  0.244523070587383E+000 
      2.06000000 -0.233324356526359E+005  0.252149295371129E+000 
      2.08000000 -0.233324279084435E+005  0.259893487717097E+000 
      2.10000000 -0.233324200482346E+005  0.267753696673757E+000 
      2.12000000 -0.233324120740756E+005  0.275727855676447E+000 
      2.14000000 -0.233324039881441E+005  0.283813787181544E+000 
      2.16000000 -0.233323957927263E+005  0.292009204992842E+000 
      2.18000000 -0.233323874902128E+005  0.300311718456435E+000 
      2.20000000 -0.233323790830956E+005  0.308718835687319E+000 
      2.22000000 -0.233323705739640E+005  0.317227967229093E+000 
      2.24000000 -0.233323619655018E+005  0.325836429500205E+000 
      2.26000000 -0.233323532604830E+005  0.334541448246378E+000 
      2.28000000 -0.233323444617696E+005  0.343340161692970E+000 
      2.30000000 -0.233323355723070E+005  0.352229624278916E+000 
      2.32000000 -0.233323265951218E+005  0.361206809502822E+000 
      2.34000000 -0.233323175333180E+005  0.370268613251651E+000 
      2.36000000 -0.233323083900745E+005  0.379411856782930E+000 
      2.38000000 -0.233322991686417E+005  0.388633289549188E+000 
      2.40000000 -0.233322898723396E+005  0.397929591663532E+000 
      2.42000000 -0.233322805045546E+005  0.407297376705524E+000 
      2.44000000 -0.233322710687376E+005  0.416733193663948E+000 
      2.46000000 -0.233322615684025E+005  0.426233528786764E+000 
      2.48000000 -0.233322520071231E+005  0.435794808179717E+000 
      2.50000000 -0.233322423885321E+005  0.445413399158226E+000 
      2.52000000 -0.233322327163200E+005  0.455085611296108E+000 
      2.54000000 -0.233322229942326E+005  0.464807698643675E+000 
      2.56000000 -0.233322132260704E+005  0.474575860844509E+000 
      2.58000000 -0.233322034156876E+005  0.484386243621159E+000 
      2.60000000 -0.233321935669901E+005  0.494234941138629E+000 
      2.62000000 -0.233321836839347E+005  0.504117996573601E+000 
      2.64000000 -0.233321737705285E+005  0.514031402733144E+000 
      2.66000000 -0.233321638308270E+005  0.523971104210944E+000 
      2.68000000 -0.233321538689336E+005  0.533932997687374E+000 
      2.70000000 -0.233321438889982E+005  0.543912933012249E+000 
      2.72000000 -0.233321338952166E+005  0.553906714609312E+000 
      2.74000000 -0.233321238918287E+005  0.563910102521856E+000 
      2.76000000 -0.233321138831179E+005  0.573918813396489E+000 
      2.78000000 -0.233321038734087E+005  0.583928522506328E+000 
      2.80000000 -0.233320938670665E+005  0.593934864713103E+000 
      2.82000000 -0.233320838684948E+005  0.603933436487260E+000 
      2.84000000 -0.233320738821334E+005  0.613919797860012E+000 
      2.86000000 -0.233320639124567E+005  0.623889474604307E+000 
      2.88000000 -0.233320539639711E+005  0.633837960174501E+000 
      2.90000000 -0.233320440412131E+005  0.643760718106974E+000 
      2.92000000 -0.233320341487465E+005  0.653653184764131E+000 
      2.94000000 -0.233320242911593E+005  0.663510771914445E+000 
      2.96000000 -0.233320144730616E+005  0.673328869658982E+000 
      2.98000000 -0.233320046990820E+005  0.683102849271301E+000 
      3.00000000 -0.233319949738645E+005  0.692828066789098E+000 
      3.02000000 -0.233319853020649E+005  0.702499866386205E+000 
      3.04000000 -0.233319756883478E+005  0.712113583425947E+000 
      3.06000000 -0.233319661373822E+005  0.721664549067479E+000 
      3.08000000 -0.233319566538372E+005  0.731148094005920E+000 
      3.10000000 -0.233319472423795E+005  0.740559551723703E+000 
      3.12000000 -0.233319379076682E+005  0.749894263059782E+000 
      3.14000000 -0.233319286543529E+005  0.759147578375141E+000 
      3.16000000 -0.233319194870700E+005  0.768314861209399E+000 
      3.18000000 -0.233319104104333E+005  0.777391497926581E+000 
      3.20000000 -0.233319014290239E+005  0.786372907333046E+000 
      3.22000000 -0.233318925473805E+005  0.795254550716145E+000 
      3.24000000 -0.233318837699903E+005  0.804031940995015E+000 
      3.26000000 -0.233318751012776E+005  0.812700653622346E+000 
      3.28000000 -0.233318665455942E+005  0.821256337080886E+000 
      3.30000000 -0.233318581072049E+005  0.829694726365240E+000 
      3.32000000 -0.233318497902708E+005  0.838011660420369E+000 
      3.34000000 -0.233318415988240E+005  0.846203107230488E+000 
      3.36000000 -0.233318335367344E+005  0.854265196815150E+000 
      3.38000000 -0.233318256076608E+005  0.862194270420208E+000 
      3.40000000 -0.233318178149834E+005  0.869986947871155E+000 
      3.42000000 -0.233318101617140E+005  0.877640217240435E+000 
      3.44000000 -0.233318026503789E+005  0.885151552335281E+000 
      3.46000000 -0.233317952828689E+005  0.892519062389693E+000 
      3.48000000 -0.233317880602578E+005  0.899741673416061E+000 
      3.50000000 -0.233317809825879E+005  0.906819343313905E+000 
      3.52000000 -0.233317740486206E+005  0.913753310692404E+000 
      3.54000000 -0.233317672555656E+005  0.920546365626383E+000 
      3.56000000 -0.233317605987910E+005  0.927203140285432E+000 
      3.58000000 -0.233317540715284E+005  0.933730402823659E+000 
      3.60000000 -0.233317476645944E+005  0.940137336890495E+000 
      3.62000000 -0.233317413661430E+005  0.946435788244410E+000 
      3.64000000 -0.233317351614754E+005  0.952640455889528E+000 
      3.66000000 -0.233317290329337E+005  0.958768997582048E+000 
      3.68000000 -0.233317229599060E+005  0.964842025282682E+000 
      3.70000000 -0.233317169189661E+005  0.970882965172333E+000 
      3.72000000 -0.233317108841786E+005  0.976917752644026E+000 
      3.74000000 -0.233317048275886E+005  0.982974342651652E+000 
      3.76000000 -0.233316987199094E+005  0.989082021896583E+000 
      3.78000000 -0.233316925314227E+005  0.995270508507253E+000 
      3.80000000 -0.233316862330867E+005  0.100156884452955E+001 
      3.82000000 -0.233316797978385E+005  0.100800409278873E+001 
      3.84000000 -0.233316732020723E+005  0.101459985891169E+001 
      3.86000000 -0.233316664272497E+005  0.102137468153501E+001 
      3.88000000 -0.233316594615909E+005  0.102834034030744E+001 
      3.90000000 -0.233316523017827E+005  0.103550014853892E+001 
      3.92000000 -0.233316449546204E+005  0.104284731088591E+001 
      3.94000000 -0.233316374384913E+005  0.105036343995367E+001 
      3.96000000 -0.233316297846015E+005  0.105801732972111E+001 
      3.98000000 -0.233316220378319E+005  0.106576409935335E+001 
      4.00000000 -0.233316142571154E+005  0.107354481582249E+001 
      4.02000000 -0.233316065152221E+005  0.108128670911534E+001 
      4.04000000 -0.233315988978476E+005  0.108890408364747E+001 
      4.06000000 -0.233315915019103E+005  0.109630002092732E+001 
      4.08000000 -0.233315844329802E+005  0.110336895106681E+001 
      4.10000000 -0.233315778017813E+005  0.111000014997036E+001 
      4.12000000 -0.233315717197407E+005  0.111608219059523E+001 
      4.14000000 -0.233315662935855E+005  0.112150834571550E+001 
      4.16000000 -0.233315616190263E+005  0.112618290491830E+001 
      4.18000000 -0.233315577736052E+005  0.113002832607056E+001 
      4.20000000 -0.233315548088276E+005  0.113299310368811E+001 
      4.22000000 -0.233315527417384E+005  0.113506019287077E+001 
      4.24000000 -0.233315515461464E+005  0.113625578481630E+001 
      4.26000000 -0.233315511437392E+005  0.113665819204798E+001 
      4.28000000 -0.233315513953651E+005  0.113640656620237E+001 
      4.30000000 -0.233315520927948E+005  0.113570913645508E+001 
      4.32000000 -0.233315529512915E+005  0.113485063978990E+001 
      4.34000000 -0.233315536033368E+005  0.113419859447770E+001 
      4.36000000 -0.233315535938660E+005  0.113420806528835E+001 
      4.38000000 -0.233315523773573E+005  0.113542457399539E+001 
      4.40000000 -0.233315493171024E+005  0.113848482886915E+001 
      4.42000000 -0.233315436869573E+005  0.114411497395697E+001 
      4.44000000 -0.233315346758264E+005  0.115312610485149E+001 
      4.46000000 -0.233315213950796E+005  0.116640685169917E+001 
      4.48000000 -0.233315028890345E+005  0.118491289671279E+001 
      4.50000000 -0.233314781485568E+005  0.120965337449758E+001 
      4.52000000 -0.233314461277446E+005  0.124167418669880E+001 
      4.54000000 -0.233314057635712E+005  0.128203836006594E+001 
      4.56000000 -0.233313559982561E+005  0.133180367514423E+001 
      4.58000000 -0.233312958040318E+005  0.139199789944910E+001 
      4.60000000 -0.233312242098782E+005  0.146359205305811E+001 
      4.62000000 -0.233311403296878E+005  0.154747224342069E+001 
      4.64000000 -0.233310433912416E+005  0.164441068963851E+001 
      4.66000000 -0.233309327652881E+005  0.175503664316369E+001 
      4.68000000 -0.233308079939525E+005  0.187980797876973E+001 
      4.70000000 -0.233306688176517E+005  0.201898427960236E+001 
      4.72000000 -0.233305151996554E+005  0.217260227582618E+001 
      4.74000000 -0.233303473474323E+005  0.234045449890797E+001 
      4.76000000 -0.233301657299275E+005  0.252207200371443E+001 
      4.78000000 -0.233299710899661E+005  0.271671196518310E+001 
      4.80000000 -0.233297644510457E+005  0.292335088557729E+001 
      4.82000000 -0.233295471178745E+005  0.314068405679789E+001 
      4.84000000 -0.233293206701405E+005  0.336713179077171E+001 
      4.86000000 -0.233290869491428E+005  0.360085278843444E+001 
      4.88000000 -0.233288480370834E+005  0.383976484787986E+001 
      4.90000000 -0.233286062290081E+005  0.408157292317440E+001 
      4.92000000 -0.233283639975903E+005  0.432380434090603E+001 
      4.94000000 -0.233281239511447E+005  0.456385078651136E+001 
      4.96000000 -0.233278887854814E+005  0.479901644990089E+001 
      4.98000000 -0.233276612304073E+005  0.502657152399203E+001 
      5.00000000 -0.233274439918624E+005  0.524381006883529E+001 
      5.02000000 -0.233272396908602E+005  0.544811107107063E+001 
      5.04000000 -0.233270508005343E+005  0.563700139693710E+001 
      5.06000000 -0.233268795827033E+005  0.580821922793305E+001 
      5.08000000 -0.233267280254384E+005  0.595977649287679E+001 
      5.10000000 -0.233265977831503E+005  0.609001878097641E+001 
      5.12000000 -0.233264901207024E+005  0.619768122887600E+001 
      5.14000000 -0.233264058629969E+005  0.628193893438275E+001 
      5.16000000 -0.233263453514008E+005  0.634245053045454E+001 
      5.18000000 -0.233263084082416E+005  0.637939368968655E+001 
      5.20000000 -0.233262943104426E+005  0.639349148870289E+001 
      5.22000000 -0.233263017731891E+005  0.638602874215603E+001 
      5.24000000 -0.233263289443092E+005  0.635885762208750E+001 
      5.26000000 -0.233263734098341E+005  0.631439209717500E+001 
      5.28000000 -0.233264322109954E+005  0.625559093581357E+001 
      5.30000000 -0.233265018726872E+005  0.618592924403487E+001 
      5.32000000 -0.233265784432150E+005  0.610935871626258E+001 
      5.34000000 -0.233266575449530E+005  0.603025697822611E+001 
      5.36000000 -0.233267344353395E+005  0.595336659170523E+001 
      5.38000000 -0.233268040774618E+005  0.588372446942626E+001 
      5.40000000 -0.233268612193196E+005  0.582658261169109E+001 
      5.42000000 -0.233269004806976E+005  0.578732123365901E+001 
      5.44000000 -0.233269164464286E+005  0.577135550262407E+001 
      5.46000000 -0.233269037646850E+005  0.578403724629115E+001 
      5.48000000 -0.233268572487944E+005  0.583055313686232E+001 
      5.50000000 -0.233267719809378E+005  0.591582099344302E+001 
      5.52000000 -0.233266434159506E+005  0.604438598061853E+001 
      5.54000000 -0.233264674833214E+005  0.622031860981207E+001 
      5.56000000 -0.233262406853631E+005  0.644711656814845E+001 
      5.58000000 -0.233259601894334E+005  0.672761249780571E+001 
      5.60000000 -0.233256239120141E+005  0.706388991715528E+001 
      5.62000000 -0.233252305924195E+005  0.745720951179272E+001 
      5.64000000 -0.233247798539300E+005  0.790794800124386E+001 
      5.66000000 -0.233242722502189E+005  0.841555171234101E+001 
      5.68000000 -0.233237092950909E+005  0.897850684032730E+001 
      5.70000000 -0.233230934737788E+005  0.959432815248959E+001 
      5.72000000 -0.233224282343585E+005  0.102595675727863E+002 
      5.74000000 -0.233217179582383E+005  0.109698436929474E+002 
      5.76000000 -0.233209679091650E+005  0.117198927662629E+002 
      5.78000000 -0.233201841607423E+005  0.125036411889555E+002 
      5.80000000 -0.233193735030802E+005  0.133142988510709E+002 
      5.82000000 -0.233185433298606E+005  0.141444720706947E+002 
      5.84000000 -0.233177015077854E+005  0.149862941458589E+002 
      5.86000000 -0.233168562310580E+005  0.158315708732686E+002 
      5.88000000 -0.233160158641769E+005  0.166719377543903E+002 
      5.90000000 -0.233151887769119E+005  0.174990250193572E+002 
      5.92000000 -0.233143831757674E+005  0.183046261638621E+002 
      5.94000000 -0.233136069365918E+005  0.190808653394229E+002 
      5.96000000 -0.233128674431402E+005  0.198203587910992E+002 
      5.98000000 -0.233121714363819E+005  0.205163655493785E+002 
      6.00000000 -0.233115248791192E+005  0.211629228120548E+002 
