# Real time calculation: 
# Eall: Total energy
# Eall0: Initial total energy
# 1:Time[fs] 2:Eall[eV] 3:Eall-Eall0[eV] 
      0.00000000 -0.233326878019313E+005  0.000000000000000E+000 
      0.02000000 -0.233326878029210E+005 -0.989795929571937E-006 
      0.04000000 -0.233326878029255E+005 -0.994278521654343E-006 
      0.06000000 -0.233326878029167E+005 -0.985412331931656E-006 
      0.08000000 -0.233326878028687E+005 -0.937446431146498E-006 
      0.10000000 -0.233326878027295E+005 -0.798272619826105E-006 
      0.12000000 -0.233326878024094E+005 -0.478136968303932E-006 
      0.14000000 -0.233326878017687E+005  0.162573622577338E-006 
      0.16000000 -0.233326878006053E+005  0.132595630641285E-005 
      0.18000000 -0.233326877986420E+005  0.328921098903003E-005 
      0.20000000 -0.233326877955142E+005  0.641701463375400E-005 
      0.22000000 -0.233326877907579E+005  0.111733108807492E-004 
      0.24000000 -0.233326877837991E+005  0.181321066283636E-004 
      0.26000000 -0.233326877739442E+005  0.279870899618961E-004 
      0.28000000 -0.233326877603718E+005  0.415594878374402E-004 
      0.30000000 -0.233326877421270E+005  0.598042346730588E-004 
      0.32000000 -0.233326877181171E+005  0.838141888933034E-004 
      0.34000000 -0.233326876871088E+005  0.114822502608672E-003 
      0.36000000 -0.233326876477283E+005  0.154202940253971E-003 
      0.38000000 -0.233326875984630E+005  0.203468273022206E-003 
      0.40000000 -0.233326875376643E+005  0.264266931615006E-003 
      0.42000000 -0.233326874635532E+005  0.338378013210452E-003 
      0.44000000 -0.233326873742265E+005  0.427704735455590E-003 
      0.46000000 -0.233326872676644E+005  0.534266866485184E-003 
      0.48000000 -0.233326871417396E+005  0.660191663836687E-003 
      0.50000000 -0.233326869942270E+005  0.807704259615049E-003 
      0.52000000 -0.233326868228143E+005  0.979116965999390E-003 
      0.54000000 -0.233326866251132E+005  0.117681800534448E-002 
      0.56000000 -0.233326863986713E+005  0.140325991545672E-002 
      0.58000000 -0.233326861409839E+005  0.166094736090341E-002 
      0.60000000 -0.233326858495063E+005  0.195242499691292E-002 
      0.62000000 -0.233326855216658E+005  0.228026548795359E-002 
      0.64000000 -0.233326851548736E+005  0.264705761602634E-002 
      0.66000000 -0.233326847465360E+005  0.305539520875509E-002 
      0.68000000 -0.233326842940646E+005  0.350786666453732E-002 
      0.70000000 -0.233326837948860E+005  0.400704527274376E-002 
      0.72000000 -0.233326832464505E+005  0.455548073113217E-002 
      0.74000000 -0.233326826462395E+005  0.515569175219994E-002 
      0.76000000 -0.233326819917717E+005  0.581015955120589E-002 
      0.78000000 -0.233326812806086E+005  0.652132264586856E-002 
      0.80000000 -0.233326805103587E+005  0.729157256866936E-002 
      0.82000000 -0.233326796786807E+005  0.812325056910030E-002 
      0.84000000 -0.233326787832858E+005  0.901864540794398E-002 
      0.86000000 -0.233326778219394E+005  0.997999185070202E-002 
      0.88000000 -0.233326767924611E+005  0.110094701540613E-001 
      0.90000000 -0.233326756927247E+005  0.121092065825213E-001 
      0.92000000 -0.233326745206565E+005  0.132812747169768E-001 
      0.94000000 -0.233326732742338E+005  0.145276974655425E-001 
      0.96000000 -0.233326719514814E+005  0.158504498323039E-001 
      0.98000000 -0.233326705504690E+005  0.172514622645668E-001 
      1.00000000 -0.233326690693068E+005  0.187326244053653E-001 
      1.02000000 -0.233326675061421E+005  0.202957891089241E-001 
      1.04000000 -0.233326658591545E+005  0.219427767685715E-001 
      1.06000000 -0.233326641265518E+005  0.236753794559446E-001 
      1.08000000 -0.233326623065663E+005  0.254953649086092E-001 
      1.10000000 -0.233326603974509E+005  0.274044803135039E-001 
      1.12000000 -0.233326583974756E+005  0.294044557005926E-001 
      1.14000000 -0.233326563049244E+005  0.314970068415463E-001 
      1.16000000 -0.233326541180935E+005  0.336838377400715E-001 
      1.18000000 -0.233326518352887E+005  0.359666425128050E-001 
      1.20000000 -0.233326494548243E+005  0.383471069701310E-001 
      1.22000000 -0.233326469750218E+005  0.408269094452597E-001 
      1.24000000 -0.233326443942103E+005  0.434077209396256E-001 
      1.26000000 -0.233326417107260E+005  0.460912052311625E-001 
      1.28000000 -0.233326389229133E+005  0.488790179740727E-001 
      1.30000000 -0.233326360291258E+005  0.517728054799580E-001 
      1.32000000 -0.233326330277284E+005  0.547742028462062E-001 
      1.34000000 -0.233326299170996E+005  0.578848316358085E-001 
      1.36000000 -0.233326266956344E+005  0.611062968147194E-001 
      1.38000000 -0.233326233617480E+005  0.644401832963315E-001 
      1.40000000 -0.233326199138794E+005  0.678880518239258E-001 
      1.42000000 -0.233326163504965E+005  0.714514347634077E-001 
      1.44000000 -0.233326126701003E+005  0.751318309927190E-001 
      1.46000000 -0.233326088712305E+005  0.789307007262846E-001 
      1.48000000 -0.233326049524712E+005  0.828494600455698E-001 
      1.50000000 -0.233326009124559E+005  0.868894753430169E-001 
      1.52000000 -0.233325967498737E+005  0.910520575587131E-001 
      1.54000000 -0.233325924634748E+005  0.953384564665542E-001 
      1.56000000 -0.233325880520763E+005  0.997498549387550E-001 
      1.58000000 -0.233325835145678E+005  0.104287363457844E+000 
      1.60000000 -0.233325788499172E+005  0.108952014090378E+000 
      1.62000000 -0.233325740571760E+005  0.113744755209300E+000 
      1.64000000 -0.233325691354853E+005  0.118666445962624E+000 
      1.66000000 -0.233325640840805E+005  0.123717850754496E+000 
      1.68000000 -0.233325589022971E+005  0.128899634202665E+000 
      1.70000000 -0.233325535895753E+005  0.134212355993865E+000 
      1.72000000 -0.233325481454652E+005  0.139656466039274E+000 
      1.74000000 -0.233325425696309E+005  0.145232300332215E+000 
      1.76000000 -0.233325368618546E+005  0.150940076648087E+000 
      1.78000000 -0.233325310220399E+005  0.156779891367259E+000 
      1.80000000 -0.233325250502149E+005  0.162751716381498E+000 
      1.82000000 -0.233325189465349E+005  0.168855396374711E+000 
      1.84000000 -0.233325127112843E+005  0.175090646960615E+000 
      1.86000000 -0.233325063448777E+005  0.181457053525736E+000 
      1.88000000 -0.233324998478616E+005  0.187954069617662E+000 
      1.90000000 -0.233324932209145E+005  0.194581016750140E+000 
      1.92000000 -0.233324864648468E+005  0.201337084461860E+000 
      1.94000000 -0.233324795806015E+005  0.208221329762703E+000 
      1.96000000 -0.233324725692530E+005  0.215232678219583E+000 
      1.98000000 -0.233324654320063E+005  0.222369924940212E+000 
      2.00000000 -0.233324581701960E+005  0.229631735241302E+000 
      2.02000000 -0.233324507852847E+005  0.237016646514002E+000 
      2.04000000 -0.233324432788607E+005  0.244523070587383E+000 
      2.06000000 -0.233324356526359E+005  0.252149295371129E+000 
      2.08000000 -0.233324279084435E+005  0.259893487717097E+000 
      2.10000000 -0.233324200482346E+005  0.267753696673757E+000 
      2.12000000 -0.233324120740756E+005  0.275727855676447E+000 
      2.14000000 -0.233324039881441E+005  0.283813787181544E+000 
      2.16000000 -0.233323957927263E+005  0.292009204992842E+000 
      2.18000000 -0.233323874902128E+005  0.300311718456435E+000 
      2.20000000 -0.233323790830956E+005  0.308718835687319E+000 
      2.22000000 -0.233323705739640E+005  0.317227967229093E+000 
      2.24000000 -0.233323619655018E+005  0.325836429500205E+000 
      2.26000000 -0.233323532604830E+005  0.334541448246378E+000 
      2.28000000 -0.233323444617696E+005  0.343340161692970E+000 
      2.30000000 -0.233323355723070E+005  0.352229624278916E+000 
      2.32000000 -0.233323265951218E+005  0.361206809502822E+000 
      2.34000000 -0.233323175333180E+005  0.370268613251651E+000 
      2.36000000 -0.233323083900745E+005  0.379411856782930E+000 
      2.38000000 -0.233322991686417E+005  0.388633289549188E+000 
      2.40000000 -0.233322898723396E+005  0.397929591663532E+000 
      2.42000000 -0.233322805045546E+005  0.407297376705524E+000 
      2.44000000 -0.233322710687376E+005  0.416733193663948E+000 
      2.46000000 -0.233322615684025E+005  0.426233528786764E+000 
      2.48000000 -0.233322520071231E+005  0.435794808179717E+000 
      2.50000000 -0.233322423885321E+005  0.445413399158226E+000 
      2.52000000 -0.233322327163200E+005  0.455085611296108E+000 
      2.54000000 -0.233322229942326E+005  0.464807698643675E+000 
      2.56000000 -0.233322132260704E+005  0.474575860844509E+000 
      2.58000000 -0.233322034156876E+005  0.484386243621159E+000 
      2.60000000 -0.233321935669901E+005  0.494234941138629E+000 
      2.62000000 -0.233321836839347E+005  0.504117996573601E+000 
      2.64000000 -0.233321737705285E+005  0.514031402733144E+000 
      2.66000000 -0.233321638308270E+005  0.523971104210944E+000 
      2.68000000 -0.233321538689336E+005  0.533932997687374E+000 
      2.70000000 -0.233321438889982E+005  0.543912933012249E+000 
      2.72000000 -0.233321338952166E+005  0.553906714609312E+000 
      2.74000000 -0.233321238918287E+005  0.563910102521856E+000 
      2.76000000 -0.233321138831179E+005  0.573918813396489E+000 
      2.78000000 -0.233321038734087E+005  0.583928522506328E+000 
      2.80000000 -0.233320938670665E+005  0.593934864713103E+000 
      2.82000000 -0.233320838684948E+005  0.603933436487260E+000 
      2.84000000 -0.233320738821334E+005  0.613919797860012E+000 
      2.86000000 -0.233320639124567E+005  0.623889474604307E+000 
      2.88000000 -0.233320539639711E+005  0.633837960174501E+000 
      2.90000000 -0.233320440412131E+005  0.643760718106974E+000 
      2.92000000 -0.233320341487465E+005  0.653653184764131E+000 
      2.94000000 -0.233320242911593E+005  0.663510771914445E+000 
      2.96000000 -0.233320144730616E+005  0.673328869658982E+000 
      2.98000000 -0.233320046990820E+005  0.683102849271301E+000 
      3.00000000 -0.233319949738645E+005  0.692828066789098E+000 
      3.02000000 -0.233319853020649E+005  0.702499866386205E+000 
      3.04000000 -0.233319756883478E+005  0.712113583425947E+000 
      3.06000000 -0.233319661373822E+005  0.721664549067479E+000 
      3.08000000 -0.233319566538372E+005  0.731148094005920E+000 
      3.10000000 -0.233319472423795E+005  0.740559551723703E+000 
      3.12000000 -0.233319379076680E+005  0.749894263285613E+000 
      3.14000000 -0.233319286543495E+005  0.759147581756420E+000 
      3.16000000 -0.233319194870557E+005  0.768314875582155E+000 
      3.18000000 -0.233319104103980E+005  0.777391533267597E+000 
      3.20000000 -0.233319014289635E+005  0.786372967766060E+000 
      3.22000000 -0.233318925473104E+005  0.795254620816584E+000 
      3.24000000 -0.233318837699644E+005  0.804031966866594E+000 
      3.26000000 -0.233318751014135E+005  0.812700517749381E+000 
      3.28000000 -0.233318665461048E+005  0.821255826439711E+000 
      3.30000000 -0.233318581084402E+005  0.829693491090936E+000 
      3.32000000 -0.233318497927723E+005  0.838009158960747E+000 
      3.34000000 -0.233318416034002E+005  0.846198531073190E+000 
      3.36000000 -0.233318335445665E+005  0.854257364789428E+000 
      3.38000000 -0.233318256204532E+005  0.862181478092349E+000 
      3.40000000 -0.233318178351774E+005  0.869966753889725E+000 
      3.42000000 -0.233318101927883E+005  0.877609142915988E+000 
      3.44000000 -0.233318026972640E+005  0.885104667249628E+000 
      3.46000000 -0.233317953525065E+005  0.892449424712259E+000 
      3.48000000 -0.233317881623398E+005  0.899639591433189E+000 
      3.50000000 -0.233317811305067E+005  0.906671424568679E+000 
      3.52000000 -0.233317742606639E+005  0.913541267387781E+000 
      3.54000000 -0.233317675563811E+005  0.920245550188035E+000 
      3.56000000 -0.233317610211366E+005  0.926780794694534E+000 
      3.58000000 -0.233317546583139E+005  0.933143617345306E+000 
      3.60000000 -0.233317484711997E+005  0.939330731555807E+000 
      3.62000000 -0.233317424629809E+005  0.945338950394870E+000 
      3.64000000 -0.233317366367404E+005  0.951165190807430E+000 
      3.66000000 -0.233317309954556E+005  0.956806475606794E+000 
      3.68000000 -0.233317255419958E+005  0.962259935497834E+000 
      3.70000000 -0.233317202791180E+005  0.967522813278067E+000 
      3.72000000 -0.233317152094654E+005  0.972592465836105E+000 
      3.74000000 -0.233317103355651E+005  0.977466366181041E+000 
      3.76000000 -0.233317056598236E+005  0.982142107662086E+000 
      3.78000000 -0.233317011845259E+005  0.986617405320462E+000 
      3.80000000 -0.233316969118325E+005  0.990890098778804E+000 
      3.82000000 -0.233316928437753E+005  0.994958155950356E+000 
      3.84000000 -0.233316889822570E+005  0.998819674211437E+000 
      3.86000000 -0.233316853290475E+005  0.100247288377963E+001 
      3.88000000 -0.233316818857807E+005  0.100591615051037E+001 
      3.90000000 -0.233316786539533E+005  0.100914797792013E+001 
      3.92000000 -0.233316756349217E+005  0.101216700955924E+001 
      3.94000000 -0.233316728298986E+005  0.101497203262512E+001 
      3.96000000 -0.233316702399520E+005  0.101756197929258E+001 
      3.98000000 -0.233316678660012E+005  0.101993593000842E+001 
      4.00000000 -0.233316657088158E+005  0.102209311548993E+001 
      4.02000000 -0.233316637690117E+005  0.102403291960189E+001 
      4.04000000 -0.233316620470495E+005  0.102575488171079E+001 
      4.06000000 -0.233316605432324E+005  0.102725869885341E+001 
      4.08000000 -0.233316592577032E+005  0.102854422807250E+001 
      4.10000000 -0.233316581904427E+005  0.102961148853896E+001 
      4.12000000 -0.233316573412675E+005  0.103046066374825E+001 
      4.14000000 -0.233316567098286E+005  0.103109210269293E+001 
      4.16000000 -0.233316562956086E+005  0.103150632266843E+001 
      4.18000000 -0.233316560979209E+005  0.103170401030640E+001 
      4.20000000 -0.233316561159084E+005  0.103168602288325E+001 
      4.22000000 -0.233316563485410E+005  0.103145339024123E+001 
      4.24000000 -0.233316567946157E+005  0.103100731553097E+001 
      4.26000000 -0.233316574527552E+005  0.103034917601573E+001 
      4.28000000 -0.233316583214065E+005  0.102948052474817E+001 
      4.30000000 -0.233316593988409E+005  0.102840309031044E+001 
      4.32000000 -0.233316606831537E+005  0.102711877755052E+001 
      4.34000000 -0.233316621722636E+005  0.102562966770281E+001 
      4.36000000 -0.233316638639128E+005  0.102393801848096E+001 
      4.38000000 -0.233316657556680E+005  0.102204626329518E+001 
      4.40000000 -0.233316678449200E+005  0.101995701125229E+001 
      4.42000000 -0.233316701288851E+005  0.101767304617498E+001 
      4.44000000 -0.233316726046056E+005  0.101519732562739E+001 
      4.46000000 -0.233316752689512E+005  0.101253298001797E+001 
      4.48000000 -0.233316781186204E+005  0.100968331081136E+001 
      4.50000000 -0.233316811501421E+005  0.100665178914867E+001 
      4.52000000 -0.233316843598769E+005  0.100344205436877E+001 
      4.54000000 -0.233316877440192E+005  0.100005791209025E+001 
      4.56000000 -0.233316912986003E+005  0.996503330963165E+000 
      4.58000000 -0.233316950194896E+005  0.992782441611054E+000 
      4.60000000 -0.233316989023979E+005  0.988899533339347E+000 
      4.62000000 -0.233317029428797E+005  0.984859051567714E+000 
      4.64000000 -0.233317071363364E+005  0.980665594860227E+000 
      4.66000000 -0.233317114780190E+005  0.976323912295818E+000 
      4.68000000 -0.233317159630314E+005  0.971838899882830E+000 
      4.70000000 -0.233317205863339E+005  0.967215597363344E+000 
      4.72000000 -0.233317253427462E+005  0.962459185057740E+000 
      4.74000000 -0.233317302269513E+005  0.957574979942035E+000 
      4.76000000 -0.233317352334994E+005  0.952568431821136E+000 
      4.78000000 -0.233317403568121E+005  0.947445119106101E+000 
      4.80000000 -0.233317455911864E+005  0.942210744866740E+000 
      4.82000000 -0.233317509307990E+005  0.936871132231469E+000 
      4.84000000 -0.233317563697114E+005  0.931432219814998E+000 
      4.86000000 -0.233317619018740E+005  0.925900057272868E+000 
      4.88000000 -0.233317675211309E+005  0.920280800323881E+000 
      4.90000000 -0.233317732212255E+005  0.914580705794197E+000 
      4.92000000 -0.233317789958052E+005  0.908806126067453E+000 
      4.94000000 -0.233317848384267E+005  0.902963504503179E+000 
      4.96000000 -0.233317907425615E+005  0.897059369704399E+000 
      4.98000000 -0.233317967016019E+005  0.891100329395447E+000 
      5.00000000 -0.233318027088662E+005  0.885093065094824E+000 
      5.02000000 -0.233318087576047E+005  0.879044326525111E+000 
      5.04000000 -0.233318148410062E+005  0.872960925091705E+000 
      5.06000000 -0.233318209522035E+005  0.866849727726605E+000 
      5.08000000 -0.233318270842803E+005  0.860717650954931E+000 
      5.10000000 -0.233318332302766E+005  0.854571654611873E+000 
      5.12000000 -0.233318393831965E+005  0.848418734786242E+000 
      5.14000000 -0.233318455360135E+005  0.842265917707560E+000 
      5.16000000 -0.233318516816783E+005  0.836120252986603E+000 
      5.18000000 -0.233318578131242E+005  0.829988807032263E+000 
      5.20000000 -0.233318639232750E+005  0.823878656276621E+000 
      5.22000000 -0.233318700050506E+005  0.817796880684623E+000 
      5.24000000 -0.233318760513747E+005  0.811750556567698E+000 
      5.26000000 -0.233318820551811E+005  0.805746750149126E+000 
      5.28000000 -0.233318880094204E+005  0.799792510813850E+000 
      5.30000000 -0.233318939070672E+005  0.793894864064403E+000 
      5.32000000 -0.233318997411265E+005  0.788060804733604E+000 
      5.34000000 -0.233319055046409E+005  0.782297290379769E+000 
      5.36000000 -0.233319111906966E+005  0.776611234623152E+000 
      5.38000000 -0.233319167924311E+005  0.771009500108054E+000 
      5.40000000 -0.233319223030388E+005  0.765498892501289E+000 
      5.42000000 -0.233319277157776E+005  0.760086153627537E+000 
      5.44000000 -0.233319330239759E+005  0.754777955344059E+000 
      5.46000000 -0.233319382210381E+005  0.749580893183406E+000 
      5.48000000 -0.233319433004512E+005  0.744501480085826E+000 
      5.50000000 -0.233319482557908E+005  0.739546140428663E+000 
      5.52000000 -0.233319530807271E+005  0.734721204133098E+000 
      5.54000000 -0.233319577690306E+005  0.730032900678075E+000 
      5.56000000 -0.233319623145777E+005  0.725487353507114E+000 
      5.58000000 -0.233319667113569E+005  0.721090574329950E+000 
      5.60000000 -0.233319709534735E+005  0.716848457755171E+000 
      5.62000000 -0.233319750351552E+005  0.712766776031140E+000 
      5.64000000 -0.233319789507574E+005  0.708851173836416E+000 
      5.66000000 -0.233319826947679E+005  0.705107163314560E+000 
      5.68000000 -0.233319862618119E+005  0.701540119337871E+000 
      5.70000000 -0.233319896466567E+005  0.698155274588600E+000 
      5.72000000 -0.233319928442161E+005  0.694957715110387E+000 
      5.74000000 -0.233319958495552E+005  0.691952376088624E+000 
      5.76000000 -0.233319986578940E+005  0.689144037275053E+000 
      5.78000000 -0.233320012646120E+005  0.686537319250728E+000 
      5.80000000 -0.233320036652518E+005  0.684136679447676E+000 
      5.82000000 -0.233320058555227E+005  0.681946408504661E+000 
      5.84000000 -0.233320078313045E+005  0.679970626759073E+000 
      5.86000000 -0.233320095886502E+005  0.678213281023420E+000 
      5.88000000 -0.233320111237897E+005  0.676678141516496E+000 
      5.90000000 -0.233320124331324E+005  0.675368798828589E+000 
      5.92000000 -0.233320135132698E+005  0.674288661406401E+000 
      5.94000000 -0.233320143609783E+005  0.673440952973003E+000 
      5.96000000 -0.233320149732210E+005  0.672828710257153E+000 
      5.98000000 -0.233320153471503E+005  0.672454780951535E+000 
      6.00000000 -0.233320154801095E+005  0.672321821794741E+000 
