# Real time calculation: 
# Eall: Total energy
# Eall0: Initial total energy
# 1:Time[fs] 2:Eall[eV] 3:Eall-Eall0[eV] 
      0.00000000 -0.691406992569031E+004  0.000000000000000E+000 
      0.02000000 -0.691406992624857E+004 -0.558254407745017E-006 
      0.04000000 -0.691406992624857E+004 -0.558262915079887E-006 
      0.06000000 -0.691406992624685E+004 -0.556542113253911E-006 
      0.08000000 -0.691406992623987E+004 -0.549561458296046E-006 
      0.10000000 -0.691406992622051E+004 -0.530203404496424E-006 
      0.12000000 -0.691406992617655E+004 -0.486239818070557E-006 
      0.14000000 -0.691406992608901E+004 -0.398698568864288E-006 
      0.16000000 -0.691406992593049E+004 -0.240176757867302E-006 
      0.18000000 -0.691406992566350E+004  0.268104791457318E-007 
      0.20000000 -0.691406992523889E+004  0.451417749659532E-006 
      0.22000000 -0.691406992459432E+004  0.109599531093625E-005 
      0.24000000 -0.691406992365289E+004  0.203742162801375E-005 
      0.26000000 -0.691406992232204E+004  0.336826887858276E-005 
      0.28000000 -0.691406992049261E+004  0.519769699654238E-005 
      0.30000000 -0.691406991803820E+004  0.765211337714944E-005 
      0.32000000 -0.691406991481478E+004  0.108755325052654E-004 
      0.34000000 -0.691406991066066E+004  0.150296494277937E-004 
      0.36000000 -0.691406990539667E+004  0.202936425381897E-004 
      0.38000000 -0.691406989882662E+004  0.268636902051614E-004 
      0.40000000 -0.691406989073813E+004  0.349521772703439E-004 
      0.42000000 -0.691406988090355E+004  0.447867638818286E-004 
      0.44000000 -0.691406986908110E+004  0.566092107085567E-004 
      0.46000000 -0.691406985501631E+004  0.706739976584942E-004 
      0.48000000 -0.691406983844351E+004  0.872468026124782E-004 
      0.50000000 -0.691406981908744E+004  0.106602866469134E-003 
      0.52000000 -0.691406979666506E+004  0.129025251461408E-003 
      0.54000000 -0.691406977088730E+004  0.154803015173149E-003 
      0.56000000 -0.691406974146098E+004  0.184229327324523E-003 
      0.58000000 -0.691406970809086E+004  0.217599451213469E-003 
      0.60000000 -0.691406967048157E+004  0.255208739078244E-003 
      0.62000000 -0.691406962833965E+004  0.297350660715918E-003 
      0.64000000 -0.691406958137539E+004  0.344314918721000E-003 
      0.66000000 -0.691406952930463E+004  0.396385685146942E-003 
      0.68000000 -0.691406947185037E+004  0.453839942575834E-003 
      0.70000000 -0.691406940874426E+004  0.516946053339362E-003 
      0.72000000 -0.691406933972783E+004  0.585962481871788E-003 
      0.74000000 -0.691406926455353E+004  0.661136781563704E-003 
      0.76000000 -0.691406918298552E+004  0.742704788112013E-003 
      0.78000000 -0.691406909480030E+004  0.830890007765207E-003 
      0.80000000 -0.691406899978719E+004  0.925903125444735E-003 
      0.82000000 -0.691406889774863E+004  0.102794168223967E-002 
      0.84000000 -0.691406878850030E+004  0.113719000657465E-002 
      0.86000000 -0.691406867187092E+004  0.125381938590333E-002 
      0.88000000 -0.691406854770189E+004  0.137798841782933E-002 
      0.90000000 -0.691406841584680E+004  0.150984351049219E-002 
      0.92000000 -0.691406827617064E+004  0.164951967452289E-002 
      0.94000000 -0.691406812854885E+004  0.179714146271771E-002 
      0.96000000 -0.691406797286621E+004  0.195282409609992E-002 
      0.98000000 -0.691406780901562E+004  0.211667469129628E-002 
      1.00000000 -0.691406763689673E+004  0.228879357917387E-002 
      1.02000000 -0.691406745641458E+004  0.246927573252561E-002 
      1.04000000 -0.691406726747814E+004  0.265821217055388E-002 
      1.06000000 -0.691406706999896E+004  0.285569135097987E-002 
      1.08000000 -0.691406686388981E+004  0.306180050337497E-002 
      1.10000000 -0.691406664906334E+004  0.327662697331968E-002 
      1.12000000 -0.691406642543087E+004  0.350025944436627E-002 
      1.14000000 -0.691406619290130E+004  0.373278900841616E-002 
      1.16000000 -0.691406595138014E+004  0.397431017267903E-002 
      1.18000000 -0.691406570076841E+004  0.422492190066123E-002 
      1.20000000 -0.691406544096187E+004  0.448472844356445E-002 
      1.22000000 -0.691406517185029E+004  0.475384002164586E-002 
      1.24000000 -0.691406489331701E+004  0.503237329908212E-002 
      1.26000000 -0.691406460523864E+004  0.532045167553891E-002 
      1.28000000 -0.691406430748479E+004  0.561820552360293E-002 
      1.30000000 -0.691406399991815E+004  0.592577215784613E-002 
      1.32000000 -0.691406368239459E+004  0.624329571726982E-002 
      1.34000000 -0.691406335476344E+004  0.657092687373510E-002 
      1.36000000 -0.691406301686800E+004  0.690882230992184E-002 
      1.38000000 -0.691406266854622E+004  0.725714408823913E-002 
      1.40000000 -0.691406230963145E+004  0.761605885964314E-002 
      1.42000000 -0.691406193995334E+004  0.798573696727336E-002 
      1.44000000 -0.691406155933906E+004  0.836635125155877E-002 
      1.46000000 -0.691406116761449E+004  0.875807581820106E-002 
      1.48000000 -0.691406076460567E+004  0.916108464374511E-002 
      1.50000000 -0.691406035014027E+004  0.957555004193853E-002 
      1.52000000 -0.691405992404925E+004  0.100016410612591E-001 
      1.54000000 -0.691405948616839E+004  0.104395219242056E-001 
      1.56000000 -0.691405903633984E+004  0.108893504743225E-001 
      1.58000000 -0.691405857441373E+004  0.113512765845547E-001 
      1.60000000 -0.691405810024990E+004  0.118254404093772E-001 
      1.62000000 -0.691405761371979E+004  0.123119705193685E-001 
      1.64000000 -0.691405711470810E+004  0.128109822074777E-001 
      1.66000000 -0.691405660311448E+004  0.133225758308671E-001 
      1.68000000 -0.691405607885508E+004  0.138468352300953E-001 
      1.70000000 -0.691405554186421E+004  0.143838260988022E-001 
      1.72000000 -0.691405499209583E+004  0.149335944771373E-001 
      1.74000000 -0.691405442952496E+004  0.154961653534634E-001 
      1.76000000 -0.691405385414889E+004  0.160715414176449E-001 
      1.78000000 -0.691405326598838E+004  0.166597019303463E-001 
      1.80000000 -0.691405266508854E+004  0.172606017678901E-001 
      1.82000000 -0.691405205151946E+004  0.178741708522653E-001 
      1.84000000 -0.691405142537668E+004  0.185003136298601E-001 
      1.86000000 -0.691405078678150E+004  0.191389088146947E-001 
      1.88000000 -0.691405013588107E+004  0.197898092407036E-001 
      1.90000000 -0.691404947284831E+004  0.204528419970788E-001 
      1.92000000 -0.691404879788173E+004  0.211278085829492E-001 
      1.94000000 -0.691404811120488E+004  0.218144854348352E-001 
      1.96000000 -0.691404741306574E+004  0.225126245747528E-001 
      1.98000000 -0.691404670373578E+004  0.232219545351930E-001 
      2.00000000 -0.691404598350898E+004  0.239421813274115E-001 
      2.02000000 -0.691404525270052E+004  0.246729897894540E-001 
      2.04000000 -0.691404451164530E+004  0.254140450099751E-001 
      2.06000000 -0.691404376069659E+004  0.261649937249879E-001 
      2.08000000 -0.691404300022439E+004  0.269254659172429E-001 
      2.10000000 -0.691404223061385E+004  0.276950764581439E-001 
      2.12000000 -0.691404145226348E+004  0.284734268293227E-001 
      2.14000000 -0.691404066558347E+004  0.292601068357075E-001 
      2.16000000 -0.691403987099388E+004  0.300546964299593E-001 
      2.18000000 -0.691403906892292E+004  0.308567673860967E-001 
      2.20000000 -0.691403825980531E+004  0.316658849963225E-001 
      2.22000000 -0.691403744408062E+004  0.324816096881908E-001 
      2.24000000 -0.691403662219170E+004  0.333034986139316E-001 
      2.26000000 -0.691403579458330E+004  0.341311070085312E-001 
      2.28000000 -0.691403496170080E+004  0.349639895114624E-001 
      2.30000000 -0.691403412398889E+004  0.358017014211296E-001 
      2.32000000 -0.691403328189058E+004  0.366437997265769E-001 
      2.34000000 -0.691403243584621E+004  0.374898440997523E-001 
      2.36000000 -0.691403158629268E+004  0.383393976340993E-001 
      2.38000000 -0.691403073366286E+004  0.391920274539912E-001 
      2.40000000 -0.691402987838512E+004  0.400473051857283E-001 
      2.42000000 -0.691402902088306E+004  0.409048072529745E-001 
      2.44000000 -0.691402816157541E+004  0.417641149015056E-001 
      2.46000000 -0.691402730087627E+004  0.426248140437574E-001 
      2.48000000 -0.691402643919535E+004  0.434864949595220E-001 
      2.50000000 -0.691402557693842E+004  0.443487518945563E-001 
      2.52000000 -0.691402471450773E+004  0.452111825772109E-001 
      2.54000000 -0.691402385230304E+004  0.460733872656082E-001 
      2.56000000 -0.691402299072232E+004  0.469349679920368E-001 
      2.58000000 -0.691402213016273E+004  0.477955275853811E-001 
      2.60000000 -0.691402127102179E+004  0.486546685249515E-001 
      2.62000000 -0.691402041369851E+004  0.495119918028215E-001 
      2.64000000 -0.691401955859446E+004  0.503670958511301E-001 
      2.66000000 -0.691401870611487E+004  0.512195754369019E-001 
      2.68000000 -0.691401785666965E+004  0.520690206620485E-001 
      2.70000000 -0.691401701067440E+004  0.529150159107788E-001 
      2.72000000 -0.691401616855143E+004  0.537571388805366E-001 
      2.74000000 -0.691401533073070E+004  0.545949596144848E-001 
      2.76000000 -0.691401449765075E+004  0.554280395579638E-001 
      2.78000000 -0.691401366975950E+004  0.562559308098469E-001 
      2.80000000 -0.691401284751492E+004  0.570781753916825E-001 
      2.82000000 -0.691401203138565E+004  0.578943046591412E-001 
      2.84000000 -0.691401122185128E+004  0.587038390274610E-001 
      2.86000000 -0.691401041940271E+004  0.595062875971245E-001 
      2.88000000 -0.691400962454219E+004  0.603011481167360E-001 
      2.90000000 -0.691400883778324E+004  0.610879070704150E-001 
      2.92000000 -0.691400805965039E+004  0.618660399175485E-001 
      2.94000000 -0.691400729067875E+004  0.626350115606943E-001 
      2.96000000 -0.691400653141343E+004  0.633942768776761E-001 
      2.98000000 -0.691400578240875E+004  0.641432815614895E-001 
      3.00000000 -0.691400504422739E+004  0.648814629184448E-001 
      3.02000000 -0.691400431743932E+004  0.656082509911349E-001 
      3.04000000 -0.691400360262029E+004  0.663230700216975E-001 
      3.06000000 -0.691400290035051E+004  0.670253398021603E-001 
      3.08000000 -0.691400221121296E+004  0.677144773511602E-001 
      3.10000000 -0.691400153579169E+004  0.683898986192767E-001 
      3.12000000 -0.691400087467006E+004  0.690510202469568E-001 
      3.14000000 -0.691400022842892E+004  0.696972613928187E-001 
      3.16000000 -0.691399959764463E+004  0.703280456764177E-001 
      3.18000000 -0.691399898288704E+004  0.709428032687302E-001 
      3.20000000 -0.691399838471704E+004  0.715409732672471E-001 
      3.22000000 -0.691399780368468E+004  0.721220056310058E-001 
      3.24000000 -0.691399724032690E+004  0.726853634064184E-001 
      3.26000000 -0.691399669516396E+004  0.732305263521693E-001 
      3.28000000 -0.691399616869131E+004  0.737569990003025E-001 
      3.30000000 -0.691399566136203E+004  0.742643282764581E-001 
      3.32000000 -0.691399517355107E+004  0.747521392446003E-001 
      3.34000000 -0.691399470548840E+004  0.752202019151181E-001 
      3.36000000 -0.691399425714618E+004  0.756685441263314E-001 
      3.38000000 -0.691399382806054E+004  0.760976297661959E-001 
      3.40000000 -0.691399341706666E+004  0.765086236504948E-001 
      3.42000000 -0.691399302192522E+004  0.769037650953803E-001 
      3.44000000 -0.691399263881903E+004  0.772868712824573E-001 
      3.46000000 -0.691399226170307E+004  0.776639872454626E-001 
      3.48000000 -0.691399188149723E+004  0.780441930848670E-001 
      3.50000000 -0.691399148512053E+004  0.784405697816279E-001 
      3.52000000 -0.691399105437807E+004  0.788713122411997E-001 
      3.54000000 -0.691399056472653E+004  0.793609637782016E-001 
      3.56000000 -0.691398998396158E+004  0.799417287324501E-001 
      3.58000000 -0.691398927088768E+004  0.806548026317557E-001 
      3.60000000 -0.691398837404943E+004  0.815516408783977E-001 
      3.62000000 -0.691398723062025E+004  0.826950700607312E-001 
      3.64000000 -0.691398576555848E+004  0.841601318305360E-001 
      3.66000000 -0.691398389115211E+004  0.860345382039781E-001 
      3.68000000 -0.691398150707742E+004  0.884186128865202E-001 
      3.70000000 -0.691397850109626E+004  0.914245940496532E-001 
      3.72000000 -0.691397475050712E+004  0.951751831945700E-001 
      3.74000000 -0.691397012444767E+004  0.998012426357964E-001 
      3.76000000 -0.691396448711924E+004  0.105438571070463E+000 
      3.78000000 -0.691395770196776E+004  0.112223722555777E+000 
      3.80000000 -0.691394963681098E+004  0.120288879327003E+000 
      3.82000000 -0.691394016984876E+004  0.129755841553312E+000 
      3.84000000 -0.691392919643272E+004  0.140729257589712E+000 
      3.86000000 -0.691391663640806E+004  0.153289282246818E+000 
      3.88000000 -0.691390244177344E+004  0.167483916870067E+000 
      3.90000000 -0.691388660433867E+004  0.183321351639338E+000 
      3.92000000 -0.691386916299827E+004  0.200762692037391E+000 
      3.94000000 -0.691385021018466E+004  0.219715505655088E+000 
      3.96000000 -0.691382989702151E+004  0.240028668802138E+000 
      3.98000000 -0.691380843666948E+004  0.261489020829839E+000 
      4.00000000 -0.691378610534550E+004  0.283820344808502E+000 
      4.02000000 -0.691376324050733E+004  0.306685182981893E+000 
      4.04000000 -0.691374023572728E+004  0.329689963033545E+000 
      4.06000000 -0.691371753183719E+004  0.352393853119501E+000 
      4.08000000 -0.691369560401107E+004  0.374321679244717E+000 
      4.10000000 -0.691367494455789E+004  0.394981132417435E+000 
      4.12000000 -0.691365604133123E+004  0.413884359084116E+000 
      4.14000000 -0.691363935181526E+004  0.430573875046853E+000 
      4.16000000 -0.691362527311824E+004  0.444652572069349E+000 
      4.18000000 -0.691361410829030E+004  0.455817400014265E+000 
      4.20000000 -0.691360602957566E+004  0.463896114647424E+000 
      4.22000000 -0.691360103940293E+004  0.468886287383809E+000 
      4.24000000 -0.691359893010767E+004  0.470995582642693E+000 
      4.26000000 -0.691359924355826E+004  0.470682132053365E+000 
      4.28000000 -0.691360123201359E+004  0.468693676724525E+000 
      4.30000000 -0.691360382167090E+004  0.466104019409316E+000 
      4.32000000 -0.691360558045996E+004  0.464345230352484E+000 
      4.34000000 -0.691360469169624E+004  0.465233994066410E+000 
      4.36000000 -0.691359893521880E+004  0.470990471512469E+000 
      4.38000000 -0.691358567759910E+004  0.484248091206650E+000 
      4.40000000 -0.691356187291618E+004  0.508052774135615E+000 
      4.42000000 -0.691352407544355E+004  0.545850246762792E+000 
      4.44000000 -0.691346846538577E+004  0.601460304542251E+000 
      4.46000000 -0.691339088853381E+004  0.679037156503113E+000 
      4.48000000 -0.691328691037972E+004  0.783015310590513E+000 
      4.50000000 -0.691315188484347E+004  0.918040846844529E+000 
      4.52000000 -0.691298103732037E+004  0.108888836994258E+001 
      4.54000000 -0.691276956126304E+004  0.130036442727506E+001 
      4.56000000 -0.691251272697261E+004  0.155719871770386E+001 
      4.58000000 -0.691220600069853E+004  0.186392499177985E+001 
      4.60000000 -0.691184517155833E+004  0.222475413198559E+001 
      4.62000000 -0.691142648318954E+004  0.264344250077083E+001 
      4.64000000 -0.691094676647876E+004  0.312315921155156E+001 
      4.66000000 -0.691040356919526E+004  0.366635649504721E+001 
      4.68000000 -0.690979527791892E+004  0.427464777139168E+001 
      4.70000000 -0.690912122735027E+004  0.494869834004337E+001 
      4.72000000 -0.690838179194673E+004  0.568813374358142E+001 
      4.74000000 -0.690757845489358E+004  0.649147079673418E+001 
      4.76000000 -0.690671384973816E+004  0.735607595214902E+001 
      4.78000000 -0.690579177061587E+004  0.827815507444279E+001 
      4.80000000 -0.690481714790937E+004  0.925277778094289E+001 
      4.82000000 -0.690379598740771E+004  0.102739382826025E+002 
      4.84000000 -0.690273527256596E+004  0.113346531243473E+002 
      4.86000000 -0.690164283124921E+004  0.124270944410991E+002 
      4.88000000 -0.690052717033102E+004  0.135427553592898E+002 
      4.90000000 -0.689939728356567E+004  0.146726421246376E+002 
      4.92000000 -0.689826244014322E+004  0.158074855470908E+002 
      4.94000000 -0.689713196309355E+004  0.169379625967610E+002 
      4.96000000 -0.689601500802681E+004  0.180549176635009E+002 
      4.98000000 -0.689492035340276E+004  0.191495722875458E+002 
      5.00000000 -0.689385621341440E+004  0.202137122759085E+002 
      5.02000000 -0.689283008353429E+004  0.212398421560215E+002 
      5.04000000 -0.689184862671857E+004  0.222212989717416E+002 
      5.06000000 -0.689091760524444E+004  0.231523204458722E+002 
      5.08000000 -0.689004185928398E+004  0.240280664063304E+002 
      5.10000000 -0.688922532888600E+004  0.248445968043103E+002 
      5.12000000 -0.688847111142889E+004  0.255988142614185E+002 
      5.14000000 -0.688778154228715E+004  0.262883834031575E+002 
      5.16000000 -0.688715828296641E+004  0.269116427238980E+002 
      5.18000000 -0.688660239882852E+004  0.274675268617942E+002 
      5.20000000 -0.688611440816971E+004  0.279555175206044E+002 
      5.22000000 -0.688569428612893E+004  0.283756395613815E+002 
      5.24000000 -0.688534141072154E+004  0.287285149687667E+002 
      5.26000000 -0.688505444404369E+004  0.290154816466191E+002 
      5.28000000 -0.688483114887768E+004  0.292387768126270E+002 
      5.30000000 -0.688466814887156E+004  0.294017768187476E+002 
      5.32000000 -0.688456064830333E+004  0.295092773869849E+002 
      5.34000000 -0.688450213428853E+004  0.295677914017821E+002 
      5.36000000 -0.688448408930349E+004  0.295858363868219E+002 
      5.38000000 -0.688449574445432E+004  0.295741812359922E+002 
      5.40000000 -0.688452390366148E+004  0.295460220288307E+002 
      5.42000000 -0.688455286582606E+004  0.295170598642465E+002 
      5.44000000 -0.688456446641065E+004  0.295054592796568E+002 
      5.46000000 -0.688453825227957E+004  0.295316734107449E+002 
      5.48000000 -0.688445179487753E+004  0.296181308127787E+002 
      5.50000000 -0.688428113771376E+004  0.297887879765522E+002 
      5.52000000 -0.688400136544260E+004  0.300685602477092E+002 
      5.54000000 -0.688358727422421E+004  0.304826514661039E+002 
      5.56000000 -0.688301411691670E+004  0.310558087736144E+002 
      5.58000000 -0.688225839216556E+004  0.318115335247557E+002 
      5.60000000 -0.688129864357879E+004  0.327712821115196E+002 
      5.62000000 -0.688011623370613E+004  0.339536919841817E+002 
      5.64000000 -0.687869605722172E+004  0.353738684685923E+002 
      5.66000000 -0.687702715830030E+004  0.370427673900116E+002 
      5.68000000 -0.687510321854543E+004  0.389667071448850E+002 
      5.70000000 -0.687292288400163E+004  0.411470416886801E+002 
      5.72000000 -0.687048990298877E+004  0.435800227015386E+002 
      5.74000000 -0.686781305110655E+004  0.462568745837638E+002 
      5.76000000 -0.686490582629614E+004  0.491640993941746E+002 
      5.78000000 -0.686178590582284E+004  0.522840198674757E+002 
      5.80000000 -0.685847436886239E+004  0.555955568279237E+002 
      5.82000000 -0.685499470320121E+004  0.590752224891021E+002 
      5.84000000 -0.685137163207463E+004  0.626982936156859E+002 
      5.86000000 -0.684762981660952E+004  0.664401090807933E+002 
      5.88000000 -0.684379250924510E+004  0.702774164452080E+002 
      5.90000000 -0.683988025190689E+004  0.741896737834224E+002 
      5.92000000 -0.683590972707150E+004  0.781601986188145E+002 
      5.94000000 -0.683189287742639E+004  0.821770482639199E+002 
      5.96000000 -0.682783640772704E+004  0.862335179632730E+002 
      5.98000000 -0.682374176822897E+004  0.903281574613423E+002 
      6.00000000 -0.681960569091165E+004  0.944642347786590E+002 
